time,unix_timestamp,bvp
,1.70777E+15,0
,1.70777E+15,-3.41E-06
,1.70777E+15,-4.73E-05
,1.70777E+15,-0.00027672
,1.70777E+15,-0.001007117
,1.70777E+15,-0.00268513
,1.70777E+15,-0.00574895
,1.70777E+15,-0.01047847
,1.70777E+15,-0.016918058
,1.70777E+15,-0.024891956
,1.70777E+15,-0.034085728
,1.70777E+15,-0.044158049
,1.70777E+15,-0.054849021
,1.70777E+15,-0.066038549
,1.70777E+15,-0.077728622
,1.70777E+15,-0.089997366
,1.70777E+15,-0.10299401
,1.70777E+15,-0.116950475
,1.70777E+15,-0.132106259
,1.70777E+15,-0.14851284
,1.70777E+15,-0.165816993
,1.70777E+15,-0.183154657
,1.70777E+15,-0.199207217
,1.70777E+15,-0.212377012
,1.70777E+15,-0.221012607
,1.70777E+15,-0.223651066
,1.70777E+15,-0.219265461
,1.70777E+15,-0.207457766
,1.70777E+15,-0.188499331
,1.70777E+15,-0.163226455
,1.70777E+15,-0.13295652
,1.70777E+15,-0.099536441
,1.70777E+15,-0.065440327
,1.70777E+15,-0.033738896
,1.70777E+15,-0.007796854
,1.70777E+15,0.009313166
,1.70777E+15,0.015480101
,1.70777E+15,0.010002062
,1.70777E+15,-0.006363258
,1.70777E+15,-0.031692043
,1.70777E+15,-0.063329294
,1.70777E+15,-0.09826456
,1.70777E+15,-0.133374721
,1.70777E+15,-0.165600538
,1.70777E+15,-0.192151263
,1.70777E+15,-0.210728422
,1.70777E+15,-0.219689742
,1.70777E+15,-0.218127668
,1.70777E+15,-0.205882907
,1.70777E+15,-0.183497548
,1.70777E+15,-0.152110189
,1.70777E+15,-0.113324642
,1.70777E+15,-0.069081724
,1.70777E+15,-0.021499664
,1.70777E+15,0.027368575
,1.70777E+15,0.075815886
,1.70777E+15,0.122661889
,1.70777E+15,0.167231545
,1.70777E+15,0.209174901
,1.70777E+15,0.2482844
,1.70777E+15,0.284420729
,1.70777E+15,0.317535579
,1.70777E+15,0.347719938
,1.70777E+15,0.375215232
,1.70777E+15,0.400365114
,1.70777E+15,0.423544377
,1.70777E+15,0.445102185
,1.70777E+15,0.465278387
,1.70777E+15,0.484033763
,1.70777E+15,0.500884295
,1.70777E+15,0.51495254
,1.70777E+15,0.525286555
,1.70777E+15,0.531216085
,1.70777E+15,0.532516003
,1.70777E+15,0.529384494
,1.70777E+15,0.522333145
,1.70777E+15,0.512029588
,1.70777E+15,0.499135017
,1.70777E+15,0.484191388
,1.70777E+15,0.467578053
,1.70777E+15,0.449535429
,1.70777E+15,0.430233181
,1.70777E+15,0.409838259
,1.70777E+15,0.388560325
,1.70777E+15,0.366692603
,1.70777E+15,0.344668925
,1.70777E+15,0.323144078
,1.70777E+15,0.30308637
,1.70777E+15,0.285813779
,1.70777E+15,0.272895396
,1.70777E+15,0.265933931
,1.70777E+15,0.266319185
,1.70777E+15,0.275048316
,1.70777E+15,0.292662442
,1.70777E+15,0.319226652
,1.70777E+15,0.354211301
,1.70777E+15,0.396284699
,1.70777E+15,0.443225741
,1.70777E+15,0.492100358
,1.70777E+15,0.539616704
,1.70777E+15,0.582482934
,1.70777E+15,0.617638826
,1.70777E+15,0.642313838
,1.70777E+15,0.653970718
,1.70777E+15,0.650277972
,1.70777E+15,0.629203022
,1.70777E+15,0.589223087
,1.70777E+15,0.529629469
,1.70777E+15,0.450854957
,1.70777E+15,0.354699075
,1.70777E+15,0.244352341
,1.70777E+15,0.124151945
,1.70777E+15,-0.000953257
,1.70777E+15,-0.126092613
,1.70777E+15,-0.247071743
,1.70777E+15,-0.360721171
,1.70777E+15,-0.464988559
,1.70777E+15,-0.558844924
,1.70777E+15,-0.642101288
,1.70777E+15,-0.715208471
,1.70777E+15,-0.779043913
,1.70777E+15,-0.834682882
,1.70777E+15,-0.883202195
,1.70777E+15,-0.925541043
,1.70777E+15,-0.962401211
,1.70777E+15,-0.994199455
,1.70777E+15,-1.021089435
,1.70777E+15,-1.043041587
,1.70777E+15,-1.059978604
,1.70777E+15,-1.07196033
,1.70777E+15,-1.079374909
,1.70777E+15,-1.083049417
,1.70777E+15,-1.084214568
,1.70777E+15,-1.08433795
,1.70777E+15,-1.08488369
,1.70777E+15,-1.087041378
,1.70777E+15,-1.091470718
,1.70777E+15,-1.098110914
,1.70777E+15,-1.106099606
,1.70777E+15,-1.113836288
,1.70777E+15,-1.119181275
,1.70777E+15,-1.119750261
,1.70777E+15,-1.113249063
,1.70777E+15,-1.097762823
,1.70777E+15,-1.071931601
,1.70777E+15,-1.035027742
,1.70777E+15,-0.98697722
,1.70777E+15,-0.928339362
,1.70777E+15,-0.860251546
,1.70777E+15,-0.784346819
,1.70777E+15,-0.702645183
,1.70777E+15,-0.617395222
,1.70777E+15,-0.530856729
,1.70777E+15,-0.445049822
,1.70777E+15,-0.361515194
,1.70777E+15,-0.281095892
,1.70777E+15,-0.203739345
,1.70777E+15,-0.128384411
,1.70777E+15,-0.053048953
,1.70777E+15,0.024836957
,1.70777E+15,0.107908323
,1.70777E+15,0.198283702
,1.70777E+15,0.297136247
,1.70777E+15,0.404608548
,1.70777E+15,0.520048141
,1.70777E+15,0.642299175
,1.70777E+15,0.769810677
,1.70777E+15,0.900584698
,1.70777E+15,1.032100916
,1.70777E+15,1.161283255
,1.70777E+15,1.284523368
,1.70777E+15,1.397749424
,1.70777E+15,1.496593237
,1.70777E+15,1.576820731
,1.70777E+15,1.635092378
,1.70777E+15,1.669850349
,1.70777E+15,1.681973577
,1.70777E+15,1.674865842
,1.70777E+15,1.653814077
,1.70777E+15,1.6248281
,1.70777E+15,1.593446732
,1.70777E+15,1.563796997
,1.70777E+15,1.537928462
,1.70777E+15,1.515563965
,1.70777E+15,1.494462013
,1.70777E+15,1.471318245
,1.70777E+15,1.44286108
,1.70777E+15,1.406652927
,1.70777E+15,1.361256361
,1.70777E+15,1.305865407
,1.70777E+15,1.239774108
,1.70777E+15,1.161999941
,1.70777E+15,1.071236134
,1.70777E+15,0.966089249
,1.70777E+15,0.845352471
,1.70777E+15,0.708168089
,1.70777E+15,0.554233193
,1.70777E+15,0.384180307
,1.70777E+15,0.199981868
,1.70777E+15,0.005146921
,1.70777E+15,-0.195468545
,1.70777E+15,-0.396341205
,1.70777E+15,-0.592253089
,1.70777E+15,-0.779128253
,1.70777E+15,-0.954403043
,1.70777E+15,-1.116847038
,1.70777E+15,-1.266027927
,1.70777E+15,-1.401746869
,1.70777E+15,-1.523674011
,1.70777E+15,-1.631239414
,1.70777E+15,-1.723695159
,1.70777E+15,-1.800239682
,1.70777E+15,-1.860187054
,1.70777E+15,-1.903212905
,1.70777E+15,-1.929603577
,1.70777E+15,-1.940327883
,1.70777E+15,-1.936843395
,1.70777E+15,-1.920799732
,1.70777E+15,-1.893828154
,1.70777E+15,-1.857414007
,1.70777E+15,-1.812820196
,1.70777E+15,-1.761113644
,1.70777E+15,-1.70328021
,1.70777E+15,-1.640336275
,1.70777E+15,-1.573363543
,1.70777E+15,-1.5034554
,1.70777E+15,-1.431578994
,1.70777E+15,-1.358409882
,1.70777E+15,-1.284292221
,1.70777E+15,-1.209397793
,1.70777E+15,-1.133945227
,1.70777E+15,-1.058265686
,1.70777E+15,-0.982680619
,1.70777E+15,-0.907393515
,1.70777E+15,-0.832544088
,1.70777E+15,-0.758317351
,1.70777E+15,-0.684977114
,1.70777E+15,-0.612791717
,1.70777E+15,-0.541878939
,1.70777E+15,-0.472123384
,1.70777E+15,-0.403280646
,1.70777E+15,-0.33513701
,1.70777E+15,-0.267521918
,1.70777E+15,-0.200138628
,1.70777E+15,-0.132403493
,1.70777E+15,-0.063567758
,1.70777E+15,0.006828129
,1.70777E+15,0.078410208
,1.70777E+15,0.149649024
,1.70777E+15,0.21803081
,1.70777E+15,0.280635357
,1.70777E+15,0.334406316
,1.70777E+15,0.375638306
,1.70777E+15,0.39939785
,1.70777E+15,0.399950922
,1.70777E+15,0.372297466
,1.70777E+15,0.314116478
,1.70777E+15,0.227328539
,1.70777E+15,0.118496895
,1.70777E+15,-0.002368927
,1.70777E+15,-0.124121785
,1.70777E+15,-0.23674047
,1.70777E+15,-0.332723022
,1.70777E+15,-0.40757215
,1.70777E+15,-0.459733009
,1.70777E+15,-0.490310788
,1.70777E+15,-0.502724051
,1.70777E+15,-0.502168655
,1.70777E+15,-0.494667649
,1.70777E+15,-0.485789537
,1.70777E+15,-0.479417205
,1.70777E+15,-0.476874113
,1.70777E+15,-0.476527333
,1.70777E+15,-0.473921299
,1.70777E+15,-0.462513924
,1.70777E+15,-0.434986353
,1.70777E+15,-0.384804249
,1.70777E+15,-0.30747056
,1.70777E+15,-0.201076031
,1.70777E+15,-0.066224813
,1.70777E+15,0.094306707
,1.70777E+15,0.275969744
,1.70777E+15,0.472934008
,1.70777E+15,0.678678513
,1.70777E+15,0.886587143
,1.70777E+15,1.090563655
,1.70777E+15,1.285733938
,1.70777E+15,1.46906364
,1.70777E+15,1.639493227
,1.70777E+15,1.797417402
,1.70777E+15,1.943883061
,1.70777E+15,2.080053806
,1.70777E+15,2.207102537
,1.70777E+15,2.326276302
,1.70777E+15,2.43876195
,1.70777E+15,2.545087576
,1.70777E+15,2.644195795
,1.70777E+15,2.732842207
,1.70777E+15,2.805975914
,1.70777E+15,2.858045578
,1.70777E+15,2.884576321
,1.70777E+15,2.883451939
,1.70777E+15,2.855677128
,1.70777E+15,2.80552578
,1.70777E+15,2.739992142
,1.70777E+15,2.667550564
,1.70777E+15,2.596459389
,1.70777E+15,2.533088446
,1.70777E+15,2.480725765
,1.70777E+15,2.439049244
,1.70777E+15,2.40430069
,1.70777E+15,2.370158672
,1.70777E+15,2.329107285
,1.70777E+15,2.273816109
,1.70777E+15,2.198138237
,1.70777E+15,2.097741365
,1.70777E+15,1.970483184
,1.70777E+15,1.816470742
,1.70777E+15,1.637865543
,1.70777E+15,1.438625455
,1.70777E+15,1.224154592
,1.70777E+15,1.000728011
,1.70777E+15,0.774727225
,1.70777E+15,0.551902711
,1.70777E+15,0.336958528
,1.70777E+15,0.133576691
,1.70777E+15,-0.055321634
,1.70777E+15,-0.227410764
,1.70777E+15,-0.381041467
,1.70777E+15,-0.515410841
,1.70777E+15,-0.630568862
,1.70777E+15,-0.727220535
,1.70777E+15,-0.806472957
,1.70777E+15,-0.869661927
,1.70777E+15,-0.918299735
,1.70777E+15,-0.954110861
,1.70777E+15,-0.979090095
,1.70777E+15,-0.995483518
,1.70777E+15,-1.005620122
,1.70777E+15,-1.011645079
,1.70777E+15,-1.015247464
,1.70777E+15,-1.017416716
,1.70777E+15,-1.018287182
,1.70777E+15,-1.017181873
,1.70777E+15,-1.01290226
,1.70777E+15,-1.004169106
,1.70777E+15,-0.990055561
,1.70777E+15,-0.970265388
,1.70777E+15,-0.945167184
,1.70777E+15,-0.915710688
,1.70777E+15,-0.883510232
,1.70777E+15,-0.851108849
,1.70777E+15,-0.8221457
,1.70777E+15,-0.801242292
,1.70777E+15,-0.79356581
,1.70777E+15,-0.804073632
,1.70777E+15,-0.836606622
,1.70777E+15,-0.893132567
,1.70777E+15,-0.973330379
,1.70777E+15,-1.074503899
,1.70777E+15,-1.191714406
,1.70777E+15,-1.318097472
,1.70777E+15,-1.445415974
,1.70777E+15,-1.564852715
,1.70777E+15,-1.667937994
,1.70777E+15,-1.747473359
,1.70777E+15,-1.798311114
,1.70777E+15,-1.817860603
,1.70777E+15,-1.806250095
,1.70777E+15,-1.766149759
,1.70777E+15,-1.70231986
,1.70777E+15,-1.62099874
,1.70777E+15,-1.529240489
,1.70777E+15,-1.434225798
,1.70777E+15,-1.342549324
,1.70777E+15,-1.259566188
,1.70777E+15,-1.188904405
,1.70777E+15,-1.132216454
,1.70777E+15,-1.08921361
,1.70777E+15,-1.057963729
,1.70777E+15,-1.035383224
,1.70777E+15,-1.017836094
,1.70777E+15,-1.001721382
,1.70777E+15,-0.983953476
,1.70777E+15,-0.962301195
,1.70777E+15,-0.935552359
,1.70777E+15,-0.903482139
,1.70777E+15,-0.866672516
,1.70777E+15,-0.826251268
,1.70777E+15,-0.783601522
,1.70777E+15,-0.740087748
,1.70777E+15,-0.696843982
,1.70777E+15,-0.654656231
,1.70777E+15,-0.613949656
,1.70777E+15,-0.574852526
,1.70777E+15,-0.537276983
,1.70777E+15,-0.50096941
,1.70777E+15,-0.465515882
,1.70777E+15,-0.430340797
,1.70777E+15,-0.394761741
,1.70777E+15,-0.358108193
,1.70777E+15,-0.319845945
,1.70777E+15,-0.279680848
,1.70777E+15,-0.237648785
,1.70777E+15,-0.194166631
,1.70777E+15,-0.149994522
,1.70777E+15,-0.106105909
,1.70777E+15,-0.063542411
,1.70777E+15,-0.023336649
,1.70777E+15,0.013517857
,1.70777E+15,0.046139352
,1.70777E+15,0.073894784
,1.70777E+15,0.096530125
,1.70777E+15,0.114227891
,1.70777E+15,0.127587557
,1.70777E+15,0.137551248
,1.70777E+15,0.145289823
,1.70777E+15,0.152062774
,1.70777E+15,0.159077793
,1.70777E+15,0.167402536
,1.70777E+15,0.177953094
,1.70777E+15,0.191479445
,1.70777E+15,0.20844464
,1.70777E+15,0.228815541
,1.70777E+15,0.251895785
,1.70777E+15,0.276343226
,1.70777E+15,0.300418884
,1.70777E+15,0.322370708
,1.70777E+15,0.340815753
,1.70777E+15,0.35503763
,1.70777E+15,0.36514622
,1.70777E+15,0.372045994
,1.70777E+15,0.37718761
,1.70777E+15,0.382203102
,1.70777E+15,0.388636559
,1.70777E+15,0.397877216
,1.70777E+15,0.411181271
,1.70777E+15,0.429618955
,1.70777E+15,0.453926861
,1.70777E+15,0.484345943
,1.70777E+15,0.520471275
,1.70777E+15,0.561060429
,1.70777E+15,0.603800297
,1.70777E+15,0.645211518
,1.70777E+15,0.680929303
,1.70777E+15,0.706397533
,1.70777E+15,0.717770636
,1.70777E+15,0.712731659
,1.70777E+15,0.690997779
,1.70777E+15,0.654470742
,1.70777E+15,0.607129574
,1.70777E+15,0.554708421
,1.70777E+15,0.504165113
,1.70777E+15,0.463020086
,1.70777E+15,0.438561261
,1.70777E+15,0.436733872
,1.70777E+15,0.460762858
,1.70777E+15,0.510124207
,1.70777E+15,0.580583274
,1.70777E+15,0.665351927
,1.70777E+15,0.756690562
,1.70777E+15,0.847214997
,1.70777E+15,0.930641532
,1.70777E+15,1.002064705
,1.70777E+15,1.057882786
,1.70777E+15,1.095563173
,1.70777E+15,1.113577604
,1.70777E+15,1.111639977
,1.70777E+15,1.09101975
,1.70777E+15,1.054643035
,1.70777E+15,1.006825447
,1.70777E+15,0.952614188
,1.70777E+15,0.896839619
,1.70777E+15,0.843146741
,1.70777E+15,0.793432117
,1.70777E+15,0.747933865
,1.70777E+15,0.705753505
,1.70777E+15,0.665420055
,1.70777E+15,0.625369847
,1.70777E+15,0.584349096
,1.70777E+15,0.541633368
,1.70777E+15,0.496948391
,1.70777E+15,0.450157732
,1.70777E+15,0.401000798
,1.70777E+15,0.349268317
,1.70777E+15,0.295619726
,1.70777E+15,0.242810011
,1.70777E+15,0.197113007
,1.70777E+15,0.170795202
,1.70777E+15,0.187464684
,1.70777E+15,0.291743606
,1.70777E+15,0.563403189
,1.70777E+15,1.128055811
,1.70777E+15,2.141747236
,1.70777E+15,3.735183716
,1.70777E+15,5.942577839
,1.70777E+15,8.659679413
,1.70777E+15,11.6511488
,1.70777E+15,14.58841801
,1.70777E+15,17.08808708
,1.70777E+15,18.75918579
,1.70777E+15,19.28362465
,1.70777E+15,18.50148392
,1.70777E+15,16.45204353
,1.70777E+15,13.36836529
,1.70777E+15,9.641872406
,1.70777E+15,5.750441074
,1.70777E+15,2.155777454
,1.70777E+15,-0.788683414
,1.70777E+15,-2.886538506
,1.70777E+15,-4.103806496
,1.70777E+15,-4.543941498
,1.70777E+15,-4.405369282
,1.70777E+15,-3.932993889
,1.70777E+15,-3.372731209
,1.70777E+15,-2.935272217
,1.70777E+15,-2.772368908
,1.70777E+15,-2.968382359
,1.70777E+15,-3.549004555
,1.70777E+15,-4.498793125
,1.70777E+15,-5.770999432
,1.70777E+15,-7.286977291
,1.70777E+15,-8.940984726
,1.70777E+15,-10.62129307
,1.70777E+15,-12.23827076
,1.70777E+15,-13.74188805
,1.70777E+15,-15.12108994
,1.70777E+15,-16.38961411
,1.70777E+15,-17.566082
,1.70777E+15,-18.65548706
,1.70777E+15,-19.63883209
,1.70777E+15,-20.47251511
,1.70777E+15,-21.09313583
,1.70777E+15,-21.42579651
,1.70777E+15,-21.39865112
,1.70777E+15,-20.96384048
,1.70777E+15,-20.11728287
,1.70777E+15,-18.90775108
,1.70777E+15,-17.43155098
,1.70777E+15,-15.81401253
,1.70777E+15,-14.18140411
,1.70777E+15,-12.63258743
,1.70777E+15,-11.22229195
,1.70777E+15,-9.960663795
,1.70777E+15,-8.824717522
,1.70777E+15,-7.77470541
,1.70777E+15,-6.769574165
,1.70777E+15,-5.77732563
,1.70777E+15,-4.778820038
,1.70777E+15,-3.765901089
,1.70777E+15,-2.736113548
,1.70777E+15,-1.688101768
,1.70777E+15,-0.621106148
,1.70777E+15,0.462470055
,1.70777E+15,1.555111885
,1.70777E+15,2.644593239
,1.70777E+15,3.715233803
,1.70777E+15,4.748205185
,1.70777E+15,5.721198559
,1.70777E+15,6.607328415
,1.70777E+15,7.372672558
,1.70777E+15,7.976261616
,1.70777E+15,8.37843895
,1.70777E+15,8.556166649
,1.70777E+15,8.514512062
,1.70777E+15,8.28554821
,1.70777E+15,7.918139458
,1.70777E+15,7.468085766
,1.70777E+15,6.992420673
,1.70777E+15,6.545722008
,1.70777E+15,6.176239014
,1.70777E+15,5.921776772
,1.70777E+15,5.806341171
,1.70777E+15,5.838425636
,1.70777E+15,6.011264801
,1.70777E+15,6.304922104
,1.70777E+15,6.689791679
,1.70777E+15,7.130874634
,1.70777E+15,7.592143536
,1.70777E+15,8.040388107
,1.70777E+15,8.448067665
,1.70777E+15,8.794798851
,1.70777E+15,9.067492485
,1.70777E+15,9.259794235
,1.70777E+15,9.371538162
,1.70777E+15,9.408226013
,1.70777E+15,9.380070686
,1.70777E+15,9.300317764
,1.70777E+15,9.183151245
,1.70777E+15,9.041787148
,1.70777E+15,8.887116432
,1.70777E+15,8.726912498
,1.70777E+15,8.565534592
,1.70777E+15,8.40407753
,1.70777E+15,8.24111557
,1.70777E+15,8.074345589
,1.70777E+15,7.902747154
,1.70777E+15,7.727667809
,1.70777E+15,7.552745342
,1.70777E+15,7.385622025
,1.70777E+15,7.243130684
,1.70777E+15,7.15776062
,1.70777E+15,7.180737972
,1.70777E+15,7.374197006
,1.70777E+15,7.787754059
,1.70777E+15,8.42736721
,1.70777E+15,9.234902382
,1.70777E+15,10.09220791
,1.70777E+15,10.84549713
,1.70777E+15,11.33530426
,1.70777E+15,11.42315865
,1.70777E+15,11.01303959
,1.70777E+15,10.06655598
,1.70777E+15,8.610239983
,1.70777E+15,6.732729435
,1.70777E+15,4.571190834
,1.70777E+15,2.289773941
,1.70777E+15,0.054801464
,1.70777E+15,-1.988503098
,1.70777E+15,-3.733221054
,1.70777E+15,-5.117986202
,1.70777E+15,-6.123520851
,1.70777E+15,-6.76500082
,1.70777E+15,-7.088847637
,1.70777E+15,-7.170800209
,1.70777E+15,-7.104580879
,1.70777E+15,-6.981921196
,1.70777E+15,-6.874958038
,1.70777E+15,-6.827432632
,1.70777E+15,-6.854049683
,1.70777E+15,-6.945241451
,1.70777E+15,-7.074791908
,1.70777E+15,-7.208313465
,1.70777E+15,-7.311088562
,1.70777E+15,-7.354332447
,1.70777E+15,-7.319257736
,1.70777E+15,-7.198724747
,1.70777E+15,-6.996747017
,1.70777E+15,-6.726424217
,1.70777E+15,-6.406927109
,1.70777E+15,-6.06014061
,1.70777E+15,-5.707487106
,1.70777E+15,-5.36735487
,1.70777E+15,-5.053407669
,1.70777E+15,-4.773850441
,1.70777E+15,-4.531551361
,1.70777E+15,-4.324819088
,1.70777E+15,-4.148598194
,1.70777E+15,-3.995840549
,1.70777E+15,-3.858853817
,1.70777E+15,-3.730457067
,1.70777E+15,-3.604800463
,1.70777E+15,-3.477782249
,1.70777E+15,-3.34710598
,1.70777E+15,-3.21208334
,1.70777E+15,-3.073257446
,1.70777E+15,-2.931882381
,1.70777E+15,-2.789337873
,1.70777E+15,-2.646670818
,1.70777E+15,-2.504453897
,1.70777E+15,-2.362728596
,1.70777E+15,-2.220644474
,1.70777E+15,-2.076470852
,1.70777E+15,-1.929024458
,1.70777E+15,-1.779565215
,1.70777E+15,-1.632223606
,1.70777E+15,-1.49279511
,1.70777E+15,-1.367009878
,1.70777E+15,-1.259083629
,1.70777E+15,-1.170925736
,1.70777E+15,-1.102027535
,1.70777E+15,-1.049811602
,1.70777E+15,-1.010235786
,1.70777E+15,-0.978527844
,1.70777E+15,-0.949926198
,1.70777E+15,-0.920294702
,1.70777E+15,-0.886528254
,1.70777E+15,-0.846734881
,1.70777E+15,-0.800221741
,1.70777E+15,-0.74733758
,1.70777E+15,-0.689224899
,1.70777E+15,-0.627536714
,1.70777E+15,-0.564163327
,1.70777E+15,-0.500992894
,1.70777E+15,-0.439710975
,1.70777E+15,-0.381640792
,1.70777E+15,-0.327629745
,1.70777E+15,-0.277990043
,1.70777E+15,-0.232497871
,1.70777E+15,-0.190452516
,1.70777E+15,-0.150776803
,1.70777E+15,-0.112146914
,1.70777E+15,-0.07315892
,1.70777E+15,-0.032464504
,1.70777E+15,0.01123023
,1.70777E+15,0.059602708
,1.70777E+15,0.115733206
,1.70777E+15,0.184172332
,1.70777E+15,0.268500596
,1.70777E+15,0.368161052
,1.70777E+15,0.477331161
,1.70777E+15,0.586085975
,1.70777E+15,0.682674587
,1.70777E+15,0.755932033
,1.70777E+15,0.797257125
,1.70777E+15,0.801905513
,1.70777E+15,0.76949662
,1.70777E+15,0.70377332
,1.70777E+15,0.611914515
,1.70777E+15,0.503720224
,1.70777E+15,0.390610278
,1.70777E+15,0.284269333
,1.70777E+15,0.195119143
,1.70777E+15,0.131019339
,1.70777E+15,0.096461445
,1.70777E+15,0.092322379
,1.70777E+15,0.116173953
,1.70777E+15,0.163061261
,1.70777E+15,0.226519912
,1.70777E+15,0.299592495
,1.70777E+15,0.37570703
,1.70777E+15,0.449346066
,1.70777E+15,0.516460061
,1.70777E+15,0.574612379
,1.70777E+15,0.622894704
,1.70777E+15,0.661673963
,1.70777E+15,0.692229986
,1.70777E+15,0.716350198
,1.70777E+15,0.735948026
,1.70777E+15,0.752754927
,1.70777E+15,0.768113911
,1.70777E+15,0.782870114
,1.70777E+15,0.797341466
,1.70777E+15,0.811369956
,1.70777E+15,0.824460864
,1.70777E+15,0.835984647
,1.70777E+15,0.845373392
,1.70777E+15,0.852251112
,1.70777E+15,0.856487334
,1.70777E+15,0.858190715
,1.70777E+15,0.857656062
,1.70777E+15,0.855283141
,1.70777E+15,0.851499319
,1.70777E+15,0.846705675
,1.70777E+15,0.84124136
,1.70777E+15,0.835354805
,1.70777E+15,0.829175174
,1.70777E+15,0.822690785
,1.70777E+15,0.815745354
,1.70777E+15,0.808057964
,1.70777E+15,0.799270511
,1.70777E+15,0.78901732
,1.70777E+15,0.777002394
,1.70777E+15,0.763066947
,1.70777E+15,0.747226715
,1.70777E+15,0.729675949
,1.70777E+15,0.710769296
,1.70777E+15,0.69097805
,1.70777E+15,0.670808017
,1.70777E+15,0.650695682
,1.70777E+15,0.630923212
,1.70777E+15,0.611575484
,1.70777E+15,0.592536986
,1.70777E+15,0.57352072
,1.70777E+15,0.554123998
,1.70777E+15,0.533903122
,1.70777E+15,0.512450039
,1.70777E+15,0.489456207
,1.70777E+15,0.464761287
,1.70777E+15,0.438386053
,1.70777E+15,0.410540581
,1.70777E+15,0.381602347
,1.70777E+15,0.352065653
,1.70777E+15,0.322469175
,1.70777E+15,0.293319732
,1.70777E+15,0.26503399
,1.70777E+15,0.237908125
,1.70777E+15,0.212109491
,1.70777E+15,0.187682807
,1.70777E+15,0.164567202
,1.70777E+15,0.142621115
,1.70777E+15,0.121658511
,1.70777E+15,0.101494282
,1.70777E+15,0.081979498
,1.70777E+15,0.063020281
,1.70777E+15,0.044589832
,1.70777E+15,0.026723139
,1.70777E+15,0.009492295
,1.70777E+15,-0.007011469
,1.70777E+15,-0.022682644
,1.70777E+15,-0.037417777
,1.70777E+15,-0.0511529
,1.70777E+15,-0.063900739
,1.70777E+15,-0.075773187
,1.70777E+15,-0.086977765
,1.70777E+15,-0.097757228
,1.70777E+15,-0.108279079
,1.70777E+15,-0.118550941
,1.70777E+15,-0.128420889
,1.70777E+15,-0.137639031
,1.70777E+15,-0.145932138
,1.70777E+15,-0.153075173
,1.70777E+15,-0.158946604
,1.70777E+15,-0.16354093
,1.70777E+15,-0.166930884
,1.70777E+15,-0.169209123
,1.70777E+15,-0.170453519
,1.70777E+15,-0.170743167
,1.70777E+15,-0.170218438
,1.70777E+15,-0.169134676
,1.70777E+15,-0.167852268
,1.70777E+15,-0.166761696
,1.70777E+15,-0.166187033
,1.70777E+15,-0.166301236
,1.70777E+15,-0.167063668
,1.70777E+15,-0.168178678
,1.70777E+15,-0.169082582
,1.70777E+15,-0.168997839
,1.70777E+15,-0.167091683
,1.70777E+15,-0.162697583
,1.70777E+15,-0.155495882
,1.70777E+15,-0.145603299
,1.70777E+15,-0.133626163
,1.70777E+15,-0.120768547
,1.70777E+15,-0.108982295
,1.70777E+15,-0.100979567
,1.70777E+15,-0.099956095
,1.70777E+15,-0.109089047
,1.70777E+15,-0.130981177
,1.70777E+15,-0.167213738
,1.70777E+15,-0.21815984
,1.70777E+15,-0.283074319
,1.70777E+15,-0.360252976
,1.70777E+15,-0.447024286
,1.70777E+15,-0.539447427
,1.70777E+15,-0.631535709
,1.70777E+15,-0.713898063
,1.70777E+15,-0.771969795
,1.70777E+15,-0.783251643
,1.70777E+15,-0.712596357
,1.70777E+15,-0.509766579
,1.70777E+15,-0.119180918
,1.70777E+15,0.49659586
,1.70777E+15,1.332916737
,1.70777E+15,2.331902504
,1.70777E+15,3.38565731
,1.70777E+15,4.348439217
,1.70777E+15,5.055718899
,1.70777E+15,5.353106499
,1.70777E+15,5.131894588
,1.70777E+15,4.357786655
,1.70777E+15,3.080942631
,1.70777E+15,1.425328016
,1.70777E+15,-0.436672091
,1.70777E+15,-2.315103054
,1.70777E+15,-4.031098366
,1.70777E+15,-5.439546108
,1.70777E+15,-6.443900585
,1.70777E+15,-7.002118111
,1.70777E+15,-7.124306202
,1.70777E+15,-6.863776684
,1.70777E+15,-6.303152561
,1.70777E+15,-5.537755013
,1.70777E+15,-4.66020155
,1.70777E+15,-3.749936581
,1.70777E+15,-2.867940903
,1.70777E+15,-2.053603888
,1.70777E+15,-1.322381496
,1.70777E+15,-0.668237031
,1.70777E+15,-0.073878393
,1.70777E+15,0.475840271
,1.70777E+15,0.984360456
,1.70777E+15,1.441069007
,1.70777E+15,1.825778246
,1.70777E+15,2.116721153
,1.70777E+15,2.29808116
,1.70777E+15,2.364977121
,1.70777E+15,2.325440884
,1.70777E+15,2.199537754
,1.70777E+15,2.017168283
,1.70777E+15,1.817672253
,1.70777E+15,1.65209341
,1.70777E+15,1.583517551
,1.70777E+15,1.680467725
,1.70777E+15,2.005043268
,1.70777E+15,2.60109663
,1.70777E+15,3.480989695
,1.70777E+15,4.606039524
,1.70777E+15,5.869706154
,1.70777E+15,7.102018356
,1.70777E+15,8.098262787
,1.70777E+15,8.659712791
,1.70777E+15,8.639972687
,1.70777E+15,7.994417191
,1.70777E+15,6.812520981
,1.70777E+15,5.302398682
,1.70777E+15,3.726598978
,1.70777E+15,2.326565027
,1.70777E+15,1.270749331
,1.70777E+15,0.634236097
,1.70777E+15,0.402204752
,1.70777E+15,0.486949921
,1.70777E+15,0.752049685
,1.70777E+15,1.042221069
,1.70777E+15,1.215479136
,1.70777E+15,1.169897079
,1.70777E+15,0.857491732
,1.70777E+15,0.282089472
,1.70777E+15,-0.515005589
,1.70777E+15,-1.472993374
,1.70777E+15,-2.52463913
,1.70777E+15,-3.59858489
,1.70777E+15,-4.614529133
,1.70777E+15,-5.486476898
,1.70777E+15,-6.146057129
,1.70777E+15,-6.581979752
,1.70777E+15,-6.873494625
,1.70777E+15,-7.183321953
,1.70777E+15,-7.698450089
,1.70777E+15,-8.551363945
,1.70777E+15,-9.760781288
,1.70777E+15,-11.20706463
,1.70777E+15,-12.64602852
,1.70777E+15,-13.76532745
,1.70777E+15,-14.27266693
,1.70777E+15,-13.97984028
,1.70777E+15,-12.84843349
,1.70777E+15,-10.99038029
,1.70777E+15,-8.637073517
,1.70777E+15,-6.091583729
,1.70777E+15,-3.671468496
,1.70777E+15,-1.650581479
,1.70777E+15,-0.213202715
,1.70777E+15,0.568566978
,1.70777E+15,0.731061339
,1.70777E+15,0.393979251
,1.70777E+15,-0.275382638
,1.70777E+15,-1.0968225
,1.70777E+15,-1.899475574
,1.70777E+15,-2.525933504
,1.70777E+15,-2.831020355
,1.70777E+15,-2.69632864
,1.70777E+15,-2.059709549
,1.70777E+15,-0.939251184
,1.70777E+15,0.557062149
,1.70777E+15,2.229247093
,1.70777E+15,3.800662279
,1.70777E+15,4.978735924
,1.70777E+15,5.55325985
,1.70777E+15,5.469884872
,1.70777E+15,4.828260899
,1.70777E+15,3.8241961
,1.70777E+15,2.692714214
,1.70777E+15,1.676960707
,1.70777E+15,1.002441883
,1.70777E+15,0.838318825
,1.70777E+15,1.258091927
,1.70777E+15,2.218714476
,1.70777E+15,3.565167189
,1.70777E+15,5.061968803
,1.70777E+15,6.448610306
,1.70777E+15,7.503276825
,1.70777E+15,8.092317581
,1.70777E+15,8.192874908
,1.70777E+15,7.88540411
,1.70777E+15,7.317394257
,1.70777E+15,6.651103973
,1.70777E+15,6.013947964
,1.70777E+15,5.465928078
,1.70777E+15,4.994713783
,1.70777E+15,4.540245056
,1.70777E+15,4.036420822
,1.70777E+15,3.448222399
,1.70777E+15,2.784663439
,1.70777E+15,2.085477591
,1.70777E+15,1.401888609
,1.70777E+15,0.792671084
,1.70777E+15,0.329949141
,1.70777E+15,0.090748787
,1.70777E+15,0.130125284
,1.70777E+15,0.457621574
,1.70777E+15,1.032008529
,1.70777E+15,1.769664884
,1.70777E+15,2.557033539
,1.70777E+15,3.2613585
,1.70777E+15,3.738844872
,1.70777E+15,3.845731258
,1.70777E+15,3.462049484
,1.70777E+15,2.53294611
,1.70777E+15,1.114776254
,1.70777E+15,-0.604073703
,1.70777E+15,-2.333205462
,1.70777E+15,-3.756107092
,1.70777E+15,-4.615230083
,1.70777E+15,-4.768998146
,1.70777E+15,-4.209543705
,1.70777E+15,-3.050959587
,1.70777E+15,-1.501719236
,1.70777E+15,0.170918703
,1.70777E+15,1.680575371
,1.70777E+15,2.759873867
,1.70777E+15,3.196040869
,1.70777E+15,2.869671345
,1.70777E+15,1.789333344
,1.70777E+15,0.098920241
,1.70777E+15,-1.952392936
,1.70777E+15,-4.064439297
,1.70777E+15,-5.945000648
,1.70777E+15,-7.358546257
,1.70777E+15,-8.157487869
,1.70777E+15,-8.29588604
,1.70777E+15,-7.827315331
,1.70777E+15,-6.888644218
,1.70777E+15,-5.675550461
,1.70777E+15,-4.41530323
,1.70777E+15,-3.333588123
,1.70777E+15,-2.611041546
,1.70777E+15,-2.340293407
,1.70777E+15,-2.504606724
,1.70777E+15,-2.987975121
,1.70777E+15,-3.609748125
,1.70777E+15,-4.169436455
,1.70777E+15,-4.4855299
,1.70777E+15,-4.416140556
,1.70777E+15,-3.862225294
,1.70777E+15,-2.765441179
,1.70777E+15,-1.110992432
,1.70777E+15,1.061774969
,1.70777E+15,3.646227121
,1.70777E+15,6.466492653
,1.70777E+15,9.29638195
,1.70777E+15,11.89381027
,1.70777E+15,14.03806973
,1.70777E+15,15.55947304
,1.70777E+15,16.35619545
,1.70777E+15,16.39868546
,1.70777E+15,15.72524929
,1.70777E+15,14.43236923
,1.70777E+15,12.66102028
,1.70777E+15,10.57987022
,1.70777E+15,8.369584084
,1.70777E+15,6.211250782
,1.70777E+15,4.272332191
,1.70777E+15,2.684314728
,1.70777E+15,1.521472454
,1.70777E+15,0.793074489
,1.70777E+15,0.450077653
,1.70777E+15,0.401101112
,1.70777E+15,0.532474518
,1.70777E+15,0.72806859
,1.70777E+15,0.885817528
,1.70777E+15,0.929128408
,1.70777E+15,0.812563658
,1.70777E+15,0.522147894
,1.70777E+15,0.071277618
,1.70777E+15,-0.506979465
,1.70777E+15,-1.170342445
,1.70777E+15,-1.877770424
,1.70777E+15,-2.596437216
,1.70777E+15,-3.304178715
,1.70777E+15,-3.988012314
,1.70777E+15,-4.639771461
,1.70777E+15,-5.251139641
,1.70777E+15,-5.810629368
,1.70777E+15,-6.303012371
,1.70777E+15,-6.709393024
,1.70777E+15,-7.006635666
,1.70777E+15,-7.16873455
,1.70777E+15,-7.174031258
,1.70777E+15,-7.016259193
,1.70777E+15,-6.712505341
,1.70777E+15,-6.30414772
,1.70777E+15,-5.851331711
,1.70777E+15,-5.423283577
,1.70777E+15,-5.086721897
,1.70777E+15,-4.894208908
,1.70777E+15,-4.874929905
,1.70777E+15,-5.030128956
,1.70777E+15,-5.333343506
,1.70777E+15,-5.734067917
,1.70777E+15,-6.163930893
,1.70777E+15,-6.545913696
,1.70777E+15,-6.806409836
,1.70777E+15,-6.887365341
,1.70777E+15,-6.755036831
,1.70777E+15,-6.403787136
,1.70777E+15,-5.855401516
,1.70777E+15,-5.154767513
,1.70777E+15,-4.362155914
,1.70777E+15,-3.542791367
,1.70777E+15,-2.756007433
,1.70777E+15,-2.047027826
,1.70777E+15,-1.443186045
,1.70777E+15,-0.95430702
,1.70777E+15,-0.575544
,1.70777E+15,-0.290737182
,1.70777E+15,-0.075357318
,1.70777E+15,0.100257993
,1.70777E+15,0.266360372
,1.70777E+15,0.448718101
,1.70777E+15,0.664946914
,1.70777E+15,0.922830045
,1.70777E+15,1.219865203
,1.70777E+15,1.54390645
,1.70777E+15,1.875156283
,1.70777E+15,2.188935995
,1.70777E+15,2.458738327
,1.70777E+15,2.659645557
,1.70777E+15,2.771841288
,1.70777E+15,2.783552885
,1.70777E+15,2.692669153
,1.70777E+15,2.506412029
,1.70777E+15,2.239267111
,1.70777E+15,1.91010952
,1.70777E+15,1.539476991
,1.70777E+15,1.147614717
,1.70777E+15,0.753400564
,1.70777E+15,0.374054193
,1.70777E+15,0.025395632
,1.70777E+15,-0.278011203
,1.70777E+15,-0.52340436
,1.70777E+15,-0.701253653
,1.70777E+15,-0.807520866
,1.70777E+15,-0.845676899
,1.70777E+15,-0.82661581
,1.70777E+15,-0.765930414
,1.70777E+15,-0.680167675
,1.70777E+15,-0.584280968
,1.70777E+15,-0.490938425
,1.70777E+15,-0.410346031
,1.70777E+15,-0.349387169
,1.70777E+15,-0.310346365
,1.70777E+15,-0.290082455
,1.70777E+15,-0.280487537
,1.70777E+15,-0.270371437
,1.70777E+15,-0.247736216
,1.70777E+15,-0.201547861
,1.70777E+15,-0.123035908
,1.70777E+15,-0.006667614
,1.70777E+15,0.149384975
,1.70777E+15,0.34351182
,1.70777E+15,0.571583986
,1.70777E+15,0.828056812
,1.70777E+15,1.106706858
,1.70777E+15,1.400802135
,1.70777E+15,1.702996254
,1.70777E+15,2.005277395
,1.70777E+15,2.299151182
,1.70777E+15,2.576218128
,1.70777E+15,2.829125404
,1.70777E+15,3.052612305
,1.70777E+15,3.244294882
,1.70777E+15,3.404929638
,1.70777E+15,3.538164377
,1.70777E+15,3.650030613
,1.70777E+15,3.748353243
,1.70777E+15,3.842030287
,1.70777E+15,3.940078259
,1.70777E+15,4.050596237
,1.70777E+15,4.179961681
,1.70777E+15,4.332128525
,1.70777E+15,4.507661819
,1.70777E+15,4.702820778
,1.70777E+15,4.909396172
,1.70777E+15,5.115522861
,1.70777E+15,5.307255745
,1.70777E+15,5.470975399
,1.70777E+15,5.596860409
,1.70777E+15,5.68253231
,1.70777E+15,5.734712601
,1.70777E+15,5.76729393
,1.70777E+15,5.796052933
,1.70777E+15,5.832156658
,1.70777E+15,5.877440453
,1.70777E+15,5.923030853
,1.70777E+15,5.951024055
,1.70777E+15,5.938303947
,1.70777E+15,5.861404896
,1.70777E+15,5.701329708
,1.70777E+15,5.447323322
,1.70777E+15,5.098474026
,1.70777E+15,4.662904739
,1.70777E+15,4.155769348
,1.70777E+15,3.597024918
,1.70777E+15,3.008934975
,1.70777E+15,2.413591146
,1.70777E+15,1.830966949
,1.70777E+15,1.276822329
,1.70777E+15,0.760164022
,1.70777E+15,0.282429218
,1.70777E+15,-0.159811974
,1.70777E+15,-0.570242882
,1.70777E+15,-0.949323654
,1.70777E+15,-1.292771101
,1.70777E+15,-1.590897799
,1.70777E+15,-1.827919483
,1.70777E+15,-1.981940269
,1.70777E+15,-2.030189037
,1.70777E+15,-1.961700916
,1.70777E+15,-1.791114807
,1.70777E+15,-1.566826344
,1.70777E+15,-1.368299007
,1.70777E+15,-1.289076805
,1.70777E+15,-1.41200161
,1.70777E+15,-1.787842035
,1.70777E+15,-2.423613071
,1.70777E+15,-3.282448053
,1.70777E+15,-4.293511391
,1.70777E+15,-5.367733955
,1.70777E+15,-6.415885925
,1.70777E+15,-7.366178513
,1.70777E+15,-8.174126625
,1.70777E+15,-8.819107056
,1.70777E+15,-9.294047356
,1.70777E+15,-9.597950935
,1.70777E+15,-9.733739853
,1.70777E+15,-9.709533691
,1.70777E+15,-9.540412903
,1.70777E+15,-9.247576714
,1.70777E+15,-8.853952408
,1.70777E+15,-8.379184723
,1.70777E+15,-7.838531494
,1.70777E+15,-7.24668026
,1.70777E+15,-6.622541428
,1.70777E+15,-5.991000175
,1.70777E+15,-5.380812168
,1.70777E+15,-4.819382191
,1.70777E+15,-4.326616287
,1.70777E+15,-3.911688805
,1.70777E+15,-3.574799538
,1.70777E+15,-3.311765432
,1.70777E+15,-3.117317915
,1.70777E+15,-2.984686613
,1.70777E+15,-2.90198946
,1.70777E+15,-2.847604275
,1.70777E+15,-2.786146879
,1.70777E+15,-2.663759232
,1.70777E+15,-2.405023575
,1.70777E+15,-1.924736261
,1.70777E+15,-1.159461856
,1.70777E+15,-0.099256217
,1.70777E+15,1.201218247
,1.70777E+15,2.633494616
,1.70777E+15,4.05866909
,1.70777E+15,5.334309578
,1.70777E+15,6.338417053
,1.70777E+15,6.986503601
,1.70777E+15,7.240141869
,1.70777E+15,7.107213974
,1.70777E+15,6.635350704
,1.70777E+15,5.900816441
,1.70777E+15,4.995269775
,1.70777E+15,4.012397289
,1.70777E+15,3.035354137
,1.70777E+15,2.126332283
,1.70777E+15,1.321576357
,1.70777E+15,0.633634448
,1.70777E+15,0.057877064
,1.70777E+15,-0.420993567
,1.70777E+15,-0.824490249
,1.70777E+15,-1.177793622
,1.70777E+15,-1.507732153
,1.70777E+15,-1.839942336
,1.70777E+15,-2.194556236
,1.70777E+15,-2.581139803
,1.70777E+15,-2.994567871
,1.70777E+15,-3.413244486
,1.70777E+15,-3.801820993
,1.70777E+15,-4.119848251
,1.70777E+15,-4.332979679
,1.70777E+15,-4.420220852
,1.70777E+15,-4.37206316
,1.70777E+15,-4.179897785
,1.70777E+15,-3.827827454
,1.70777E+15,-3.300823689
,1.70777E+15,-2.609169483
,1.70777E+15,-1.812589645
,1.70777E+15,-1.021889687
,1.70777E+15,-0.370094299
,1.70777E+15,0.028863311
,1.70777E+15,0.11119926
,1.70777E+15,-0.121261239
,1.70777E+15,-0.601147652
,1.70777E+15,-1.214462757
,1.70777E+15,-1.832487822
,1.70777E+15,-2.341749191
,1.70777E+15,-2.661850214
,1.70777E+15,-2.750428677
,1.70777E+15,-2.599617481
,1.70777E+15,-2.227845192
,1.70777E+15,-1.669309855
,1.70777E+15,-0.964422464
,1.70777E+15,-0.153987169
,1.70777E+15,0.723698378
,1.70777E+15,1.636114836
,1.70777E+15,2.561461687
,1.70777E+15,3.491734743
,1.70777E+15,4.428889751
,1.70777E+15,5.37364769
,1.70777E+15,6.312997818
,1.70777E+15,7.214353085
,1.70777E+15,8.029110909
,1.70777E+15,8.702295303
,1.70777E+15,9.183698654
,1.70777E+15,9.43731308
,1.70777E+15,9.447282791
,1.70777E+15,9.219804764
,1.70777E+15,8.781309128
,1.70777E+15,8.17382431
,1.70777E+15,7.448709488
,1.70777E+15,6.659964561
,1.70777E+15,5.858140945
,1.70777E+15,5.085599899
,1.70777E+15,4.373529434
,1.70777E+15,3.740797281
,1.70777E+15,3.194462538
,1.70777E+15,2.731575251
,1.70777E+15,2.34179163
,1.70777E+15,2.010321856
,1.70777E+15,1.720778465
,1.70777E+15,1.457591414
,1.70777E+15,1.207780719
,1.70777E+15,0.962000251
,1.70777E+15,0.714879572
,1.70777E+15,0.464772582
,1.70777E+15,0.213075295
,1.70777E+15,-0.036704034
,1.70777E+15,-0.279947996
,1.70777E+15,-0.511859536
,1.70777E+15,-0.728212118
,1.70777E+15,-0.925861239
,1.70777E+15,-1.103001595
,1.70777E+15,-1.259190917
,1.70777E+15,-1.395188093
,1.70777E+15,-1.512667179
,1.70777E+15,-1.613870382
,1.70777E+15,-1.701259017
,1.70777E+15,-1.777208805
,1.70777E+15,-1.843779802
,1.70777E+15,-1.902575016
,1.70777E+15,-1.954686999
,1.70777E+15,-2.000721216
,1.70777E+15,-2.040876865
,1.70777E+15,-2.075061321
,1.70777E+15,-2.103017092
,1.70777E+15,-2.124441147
,1.70777E+15,-2.139084339
,1.70777E+15,-2.146819592
,1.70777E+15,-2.147680044
,1.70777E+15,-2.141864777
,1.70777E+15,-2.12972188
,1.70777E+15,-2.111713409
,1.70777E+15,-2.088371515
,1.70777E+15,-2.060254574
,1.70777E+15,-2.027906895
,1.70777E+15,-1.991828442
,1.70777E+15,-1.952454805
,1.70777E+15,-1.910149455
,1.70777E+15,-1.865205526
,1.70777E+15,-1.817855477
,1.70777E+15,-1.768285036
,1.70777E+15,-1.716649413
,1.70777E+15,-1.663089037
,1.70777E+15,-1.60774231
,1.70777E+15,-1.550755739
,1.70777E+15,-1.492288589
,1.70777E+15,-1.432514668
,1.70777E+15,-1.371620655
,1.70777E+15,-1.309801936
,1.70777E+15,-1.247257233
,1.70777E+15,-1.184183478
,1.70777E+15,-1.120770097
,1.70777E+15,-1.057195425
,1.70777E+15,-0.993623972
,1.70777E+15,-0.930205226
,1.70777E+15,-0.867074192
,1.70777E+15,-0.804352701
,1.70777E+15,-0.74215138
,1.70777E+15,-0.680571496
,1.70777E+15,-0.619707286
,1.70777E+15,-0.55964762
,1.70777E+15,-0.500477374
,1.70777E+15,-0.442277938
,1.70777E+15,-0.385127544
,1.70777E+15,-0.329101503
,1.70777E+15,-0.274271846
,1.70777E+15,-0.220706642
,1.70777E+15,-0.168469757
,1.70777E+15,-0.117620498
,1.70777E+15,-0.068212986
,1.70777E+15,-0.020295948
,1.70777E+15,0.026087403
,1.70777E+15,0.070899427
,1.70777E+15,0.114107728
,1.70777E+15,0.155684769
,1.70777E+15,0.195607483
,1.70777E+15,0.233857065
,1.70777E+15,0.270418644
,1.70777E+15,0.305281103
,1.70777E+15,0.338436842
,1.70777E+15,0.369881511
,1.70777E+15,0.399613857
,1.70777E+15,0.427635312
,1.70777E+15,0.45394969
,1.70777E+15,0.478563368
,1.70777E+15,0.501485109
,1.70777E+15,0.52272594
,1.70777E+15,0.542299569
,1.70777E+15,0.560222149
,1.70777E+15,0.576512516
,1.70777E+15,0.591192186
,1.70777E+15,0.604285061
,1.70777E+15,0.615817308
,1.70777E+15,0.625816822
,1.70777E+15,0.634313285
,1.70777E+15,0.64133811
,1.70777E+15,0.646924198
,1.70777E+15,0.651105881
,1.70777E+15,0.653918862
,1.70777E+15,0.655400038
,1.70777E+15,0.655587435
,1.70777E+15,0.654520035
,1.70777E+15,0.652237833
,1.70777E+15,0.648781657
,1.70777E+15,0.644192934
,1.70777E+15,0.638513923
,1.70777E+15,0.63178736
,1.70777E+15,0.624056518
,1.70777E+15,0.615364909
,1.70777E+15,0.605756521
,1.70777E+15,0.595275462
,1.70777E+15,0.583965957
,1.70777E+15,0.571872354
,1.70777E+15,0.559038997
,1.70777E+15,0.545510173
,1.70777E+15,0.53132993
,1.70777E+15,0.516542137
,1.70777E+15,0.501190424
,1.70777E+15,0.485318065
,1.70777E+15,0.468967885
,1.70777E+15,0.452182323
,1.70777E+15,0.435003281
,1.70777E+15,0.417472064
,1.70777E+15,0.399629414
,1.70777E+15,0.381515324
,1.70777E+15,0.363169134
,1.70777E+15,0.344629437
,1.70777E+15,0.325934023
,1.70777E+15,0.307119846
,1.70777E+15,0.288223028
,1.70777E+15,0.269278765
,1.70777E+15,0.250321329
,1.70777E+15,0.231383994
,1.70777E+15,0.212499112
,1.70777E+15,0.193698019
,1.70777E+15,0.175011024
,1.70777E+15,0.156467363
,1.70777E+15,0.138095215
,1.70777E+15,0.119921692
,1.70777E+15,0.101972796
,1.70777E+15,0.084273428
,1.70777E+15,0.066847391
,1.70777E+15,0.049717348
,1.70777E+15,0.032904852
,1.70777E+15,0.016430324
,1.70777E+15,0.000313055
,1.70777E+15,-0.015428793
,1.70777E+15,-0.030778185
,1.70777E+15,-0.045719206
,1.70777E+15,-0.060237065
,1.70777E+15,-0.074318066
,1.70777E+15,-0.087949634
,1.70777E+15,-0.101120271
,1.70777E+15,-0.113819569
,1.70777E+15,-0.126038164
,1.70777E+15,-0.137767762
,1.70777E+15,-0.149001092
,1.70777E+15,-0.15973191
,1.70777E+15,-0.169954985
,1.70777E+15,-0.179666057
,1.70777E+15,-0.188861847
,1.70777E+15,-0.19753997
,1.70777E+15,-0.205698997
,1.70777E+15,-0.21333839
,1.70777E+15,-0.220458478
,1.70777E+15,-0.227060467
,1.70777E+15,-0.233146355
,1.70777E+15,-0.238718942
,1.70777E+15,-0.24378182
,1.70777E+15,-0.248339295
,1.70777E+15,-0.252396435
,1.70777E+15,-0.255958974
,1.70777E+15,-0.259033322
,1.70777E+15,-0.261626482
,1.70777E+15,-0.263746113
,1.70777E+15,-0.26540044
,1.70777E+15,-0.266598195
,1.70777E+15,-0.267348707
,1.70777E+15,-0.26766175
,1.70777E+15,-0.267547548
,1.70777E+15,-0.267016828
,1.70777E+15,-0.266080648
,1.70777E+15,-0.264750481
,1.70777E+15,-0.263038129
,1.70777E+15,-0.260955721
,1.70777E+15,-0.258515656
,1.70777E+15,-0.255730629
,1.70777E+15,-0.252613604
,1.70777E+15,-0.249177694
,1.70777E+15,-0.245436192
,1.70777E+15,-0.241402596
,1.70777E+15,-0.237090513
,1.70777E+15,-0.232513666
,1.70777E+15,-0.227685839
,1.70777E+15,-0.222620875
,1.70777E+15,-0.217332661
,1.70777E+15,-0.211835071
,1.70777E+15,-0.206141979
,1.70777E+15,-0.20026724
,1.70777E+15,-0.194224626
,1.70777E+15,-0.188027844
,1.70777E+15,-0.181690499
,1.70777E+15,-0.175226092
,1.70777E+15,-0.168647975
,1.70777E+15,-0.161969364
,1.70777E+15,-0.155203283
,1.70777E+15,-0.148362562
,1.70777E+15,-0.141459852
,1.70777E+15,-0.134507582
,1.70777E+15,-0.127517939
,1.70777E+15,-0.120502874
,1.70777E+15,-0.113474078
,1.70777E+15,-0.106442973
,1.70777E+15,-0.099420696
,1.70777E+15,-0.09241809
,1.70777E+15,-0.085445687
,1.70777E+15,-0.078513719
,1.70777E+15,-0.071632095
,1.70777E+15,-0.064810388
,1.70777E+15,-0.058057841
,1.70777E+15,-0.051383357
,1.70777E+15,-0.044795495
,1.70777E+15,-0.038302455
,1.70777E+15,-0.031912088
,1.70777E+15,-0.025631886
,1.70777E+15,-0.019468974
,1.70777E+15,-0.013430115
,1.70777E+15,-0.007521707
,1.70777E+15,-0.00174978
,1.70777E+15,0.003880001
,1.70777E+15,0.00936234
,1.70777E+15,0.014692306
,1.70777E+15,0.01986533
,1.70777E+15,0.024877211
,1.70777E+15,0.029724102
,1.70777E+15,0.034402519
,1.70777E+15,0.038909324
,1.70777E+15,0.043241736
,1.70777E+15,0.047397319
,1.70777E+15,0.051373973
,1.70777E+15,0.055169933
,1.70777E+15,0.058783762
,1.70777E+15,0.062214352
,1.70777E+15,0.065460913
,1.70777E+15,0.068522952
,1.70777E+15,0.071400292
,1.70777E+15,0.074093051
,1.70777E+15,0.076601624
,1.70777E+15,0.078926697
,1.70777E+15,0.081069231
,1.70777E+15,0.08303044
,1.70777E+15,0.084811799
,1.70777E+15,0.086415038
,1.70777E+15,0.087842107
,1.70777E+15,0.089095198
,1.70777E+15,0.090176716
,1.70777E+15,0.091089278
,1.70777E+15,0.091835707
,1.70777E+15,0.092419006
,1.70777E+15,0.092842363
,1.70777E+15,0.093109138
,1.70777E+15,0.093222857
,1.70777E+15,0.093187191
,1.70777E+15,0.093005955
,1.70777E+15,0.092683114
,1.70777E+15,0.092222728
,1.70777E+15,0.091628991
,1.70777E+15,0.090906188
,1.70777E+15,0.087871589
,1.70777E+15,0.070409968
,1.70777E+15,0.009245962
,1.70777E+15,-0.135442346
,1.70777E+15,-0.392936051
,1.70777E+15,-0.76085937
,1.70777E+15,-1.197972298
,1.70777E+15,-1.634277821
,1.70777E+15,-1.991217852
,1.70777E+15,-2.200768232
,1.70777E+15,-2.216266632
,1.70777E+15,-2.016849279
,1.70777E+15,-1.610469341
,1.70777E+15,-1.034021139
,1.70777E+15,-0.347265542
,1.70777E+15,0.375163317
,1.70777E+15,1.038747787
,1.70777E+15,1.503707409
,1.70777E+15,1.572165489
,1.70777E+15,1.032074213
,1.70777E+15,-0.256848514
,1.70777E+15,-2.294497967
,1.70777E+15,-4.923248291
,1.70777E+15,-7.855019569
,1.70777E+15,-10.71773815
,1.70777E+15,-13.0963068
,1.70777E+15,-14.56697655
,1.70777E+15,-14.76000881
,1.70777E+15,-13.46740913
,1.70777E+15,-10.74399185
,1.70777E+15,-6.924369812
,1.70777E+15,-2.534917355
,1.70777E+15,1.84407115
,1.70777E+15,5.699419498
,1.70777E+15,8.662013054
,1.70777E+15,10.53932571
,1.70777E+15,11.31183243
,1.70777E+15,11.10521889
,1.70777E+15,10.15377331
,1.70777E+15,8.767389297
,1.70777E+15,7.294167519
,1.70777E+15,6.060466766
,1.70777E+15,5.296316624
,1.70777E+15,5.079792023
,1.70777E+15,5.325726509
,1.70777E+15,5.821543694
,1.70777E+15,6.295578957
,1.70777E+15,6.492584229
,1.70777E+15,6.233943939
,1.70777E+15,5.452937126
,1.70777E+15,4.203464985
,1.70777E+15,2.644088745
,1.70777E+15,1.003086686
,1.70777E+15,-0.467946649
,1.70777E+15,-1.54220593
,1.70777E+15,-2.053880215
,1.70777E+15,-1.913393974
,1.70777E+15,-1.10669136
,1.70777E+15,0.310180545
,1.70777E+15,2.217924595
,1.70777E+15,4.444703102
,1.70777E+15,6.782141685
,1.70777E+15,9.008108139
,1.70777E+15,10.9141264
,1.70777E+15,12.33097649
,1.70777E+15,13.1480484
,1.70777E+15,13.32229137
,1.70777E+15,12.87338638
,1.70777E+15,11.86988831
,1.70777E+15,10.41318417
,1.70777E+15,8.619918823
,1.70777E+15,6.604349613
,1.70777E+15,4.46783638
,1.70777E+15,2.305964947
,1.70777E+15,0.23376894
,1.70777E+15,-1.600652575
,1.70777E+15,-3.053082466
,1.70777E+15,-4.065011501
,1.70777E+15,-4.722333431
,1.70777E+15,-5.227694511
,1.70777E+15,-5.809792519
,1.70777E+15,-6.638770103
,1.70777E+15,-7.781518936
,1.70777E+15,-9.198554993
,1.70777E+15,-10.77102184
,1.70777E+15,-12.33828163
,1.70777E+15,-13.73462868
,1.70777E+15,-14.82334137
,1.70777E+15,-15.52388573
,1.70777E+15,-15.82416916
,1.70777E+15,-15.77166557
,1.70777E+15,-15.4458065
,1.70777E+15,-14.92576218
,1.70777E+15,-14.2693367
,1.70777E+15,-13.50765133
,1.70777E+15,-12.6501236
,1.70777E+15,-11.69237041
,1.70777E+15,-10.6229229
,1.70777E+15,-9.428480148
,1.70777E+15,-8.098338127
,1.70777E+15,-6.627742767
,1.70777E+15,-5.020479202
,1.70777E+15,-3.292341471
,1.70777E+15,-1.476463795
,1.70777E+15,0.37302494
,1.70777E+15,2.186151505
,1.70777E+15,3.892424107
,1.70777E+15,5.438835144
,1.70777E+15,6.802008629
,1.70777E+15,7.989963531
,1.70777E+15,9.033603668
,1.70777E+15,9.972685814
,1.70777E+15,10.84180832
,1.70777E+15,11.6590147
,1.70777E+15,12.41725063
,1.70777E+15,13.07910728
,1.70777E+15,13.57766533
,1.70777E+15,13.82672977
,1.70777E+15,13.74055195
,1.70777E+15,13.25815868
,1.70777E+15,12.36286831
,1.70777E+15,11.08730984
,1.70777E+15,9.499775887
,1.70777E+15,7.676730156
,1.70777E+15,5.674734116
,1.70777E+15,3.519378185
,1.70777E+15,1.223890185
,1.70777E+15,-1.170310974
,1.70777E+15,-3.558302402
,1.70777E+15,-5.763437748
,1.70777E+15,-7.558595657
,1.70777E+15,-8.708943367
,1.70777E+15,-9.026072502
,1.70777E+15,-8.418169975
,1.70777E+15,-6.917283058
,1.70777E+15,-4.673406601
,1.70777E+15,-1.918268919
,1.70777E+15,1.091347456
,1.70777E+15,4.129199982
,1.70777E+15,7.023124695
,1.70777E+15,9.641208649
,1.70777E+15,11.87014484
,1.70777E+15,13.60771751
,1.70777E+15,14.76649666
,1.70777E+15,15.28217983
,1.70777E+15,15.12660599
,1.70777E+15,14.3256321
,1.70777E+15,12.96901608
,1.70777E+15,11.19517899
,1.70777E+15,9.158876419
,1.70777E+15,7.006093979
,1.70777E+15,4.863750458
,1.70777E+15,2.836565495
,1.70777E+15,1.004439831
,1.70777E+15,-0.581696987
,1.70777E+15,-1.904578209
,1.70777E+15,-2.985025406
,1.70777E+15,-3.884481668
,1.70777E+15,-4.697116852
,1.70777E+15,-5.522632599
,1.70777E+15,-6.428310871
,1.70777E+15,-7.423257351
,1.70777E+15,-8.457526207
,1.70777E+15,-9.439282417
,1.70777E+15,-10.25723267
,1.70777E+15,-10.80316257
,1.70777E+15,-10.99603081
,1.70777E+15,-10.80598068
,1.70777E+15,-10.2723341
,1.70777E+15,-9.50579834
,1.70777E+15,-8.660745621
,1.70777E+15,-7.881259918
,1.70777E+15,-7.255294323
,1.70777E+15,-6.805392742
,1.70777E+15,-6.508365154
,1.70777E+15,-6.322759628
,1.70777E+15,-6.214060783
,1.70777E+15,-6.167484283
,1.70777E+15,-6.178054333
,1.70777E+15,-6.230851173
,1.70777E+15,-6.298662186
,1.70777E+15,-6.365001678
,1.70777E+15,-6.450664043
,1.70777E+15,-6.615949154
,1.70777E+15,-6.938137531
,1.70777E+15,-7.48571682
,1.70777E+15,-8.298909187
,1.70777E+15,-9.369926453
,1.70777E+15,-10.62329197
,1.70777E+15,-11.91373539
,1.70777E+15,-13.05875397
,1.70777E+15,-13.89158249
,1.70777E+15,-14.294384
,1.70777E+15,-14.19273663
,1.70777E+15,-13.52990532
,1.70777E+15,-12.25287056
,1.70777E+15,-10.33154964
,1.70777E+15,-7.809050083
,1.70777E+15,-4.858865738
,1.70777E+15,-1.801366568
,1.70777E+15,0.960095167
,1.70777E+15,3.054367304
,1.70777E+15,4.238554001
,1.70777E+15,4.438708305
,1.70777E+15,3.740914106
,1.70777E+15,2.352653503
,1.70777E+15,0.552862644
,1.70777E+15,-1.357433319
,1.70777E+15,-3.097887039
,1.70777E+15,-4.442008495
,1.70777E+15,-5.238628864
,1.70777E+15,-5.420416832
,1.70777E+15,-4.999671459
,1.70777E+15,-4.053349972
,1.70777E+15,-2.701031685
,1.70777E+15,-1.080789089
,1.70777E+15,0.671690464
,1.70777E+15,2.43734026
,1.70777E+15,4.12345314
,1.70777E+15,5.673658371
,1.70777E+15,7.08018446
,1.70777E+15,8.397092819
,1.70777E+15,9.736400604
,1.70777E+15,11.20758057
,1.70777E+15,12.79836559
,1.70777E+15,14.29225731
,1.70777E+15,15.3229351
,1.70777E+15,15.52898979
,1.70777E+15,14.69247437
,1.70777E+15,12.80092049
,1.70777E+15,10.03829384
,1.70777E+15,6.731138229
,1.70777E+15,3.276109695
,1.70777E+15,0.067728996
,1.70777E+15,-2.561863899
,1.70777E+15,-4.38365078
,1.70777E+15,-5.289979935
,1.70777E+15,-5.291959763
,1.70777E+15,-4.500302315
,1.70777E+15,-3.095410347
,1.70777E+15,-1.293317795
,1.70777E+15,0.686533928
,1.70777E+15,2.647607803
,1.70777E+15,4.434598446
,1.70777E+15,5.943153381
,1.70777E+15,7.121409893
,1.70777E+15,7.964687347
,1.70777E+15,8.505414963
,1.70777E+15,8.800628662
,1.70777E+15,8.91915226
,1.70777E+15,8.930143356
,1.70777E+15,8.894145966
,1.70777E+15,8.857245445
,1.70777E+15,8.848433495
,1.70777E+15,8.879815102
,1.70777E+15,8.949015617
,1.70777E+15,9.042978287
,1.70777E+15,9.142350197
,1.70777E+15,9.225738525
,1.70777E+15,9.273318291
,1.70777E+15,9.269468307
,1.70777E+15,9.204285622
,1.70777E+15,9.073993683
,1.70777E+15,8.880441666
,1.70777E+15,8.629950523
,1.70777E+15,8.331800461
,1.70777E+15,7.996634483
,1.70777E+15,7.635036469
,1.70777E+15,7.256443977
,1.70777E+15,6.868441105
,1.70777E+15,6.476426125
,1.70777E+15,6.083621025
,1.70777E+15,5.691341877
,1.70777E+15,5.299453735
,1.70777E+15,4.906918526
,1.70777E+15,4.512355328
,1.70777E+15,4.114516258
,1.70777E+15,3.712621212
,1.70777E+15,3.30655098
,1.70777E+15,2.896912575
,1.70777E+15,2.484998703
,1.70777E+15,2.072681427
,1.70777E+15,1.662294865
,1.70777E+15,1.256542206
,1.70777E+15,0.858382702
,1.70777E+15,0.470788956
,1.70777E+15,0.096318007
,1.70777E+15,-0.26342845
,1.70777E+15,-0.608279943
,1.70777E+15,-0.939733744
,1.70777E+15,-1.260818005
,1.70777E+15,-1.575521708
,1.70777E+15,-1.887930393
,1.70777E+15,-2.201374054
,1.70777E+15,-2.517836332
,1.70777E+15,-2.837715626
,1.70777E+15,-3.15991807
,1.70777E+15,-3.482182026
,1.70777E+15,-3.801501036
,1.70777E+15,-4.114477158
,1.70777E+15,-4.417510033
,1.70777E+15,-4.706923485
,1.70777E+15,-4.979192257
,1.70777E+15,-5.231229782
,1.70777E+15,-5.460614204
,1.70777E+15,-5.665704727
,1.70777E+15,-5.845689774
,1.70777E+15,-6.00057888
,1.70777E+15,-6.131120682
,1.70777E+15,-6.238661289
,1.70777E+15,-6.32497406
,1.70777E+15,-6.392084122
,1.70777E+15,-6.442082882
,1.70777E+15,-6.476949692
,1.70777E+15,-6.498432159
,1.70777E+15,-6.507977486
,1.70777E+15,-6.506689548
,1.70777E+15,-6.495322704
,1.70777E+15,-6.474324703
,1.70777E+15,-6.443907261
,1.70777E+15,-6.40412569
,1.70777E+15,-6.354958057
,1.70777E+15,-6.296370506
,1.70777E+15,-6.22837162
,1.70777E+15,-6.151051044
,1.70777E+15,-6.064593792
,1.70777E+15,-5.96928072
,1.70777E+15,-5.865477562
,1.70777E+15,-5.753631592
,1.70777E+15,-5.634264469
,1.70777E+15,-5.507936001
,1.70777E+15,-5.375190258
,1.70777E+15,-5.236526489
,1.70777E+15,-5.092400551
,1.70777E+15,-4.943230152
,1.70777E+15,-4.789401531
,1.70777E+15,-4.631276608
,1.70777E+15,-4.469193935
,1.70777E+15,-4.303466797
,1.70777E+15,-4.134382725
,1.70777E+15,-3.962222099
,1.70777E+15,-3.787286282
,1.70777E+15,-3.609910488
,1.70777E+15,-3.4304564
,1.70777E+15,-3.249303102
,1.70777E+15,-3.066838026
,1.70777E+15,-2.883437634
,1.70777E+15,-2.69945097
,1.70777E+15,-2.515200377
,1.70777E+15,-2.330991983
,1.70777E+15,-2.147128582
,1.70777E+15,-1.963916302
,1.70777E+15,-1.781659603
,1.70777E+15,-1.600653052
,1.70777E+15,-1.421171308
,1.70777E+15,-1.243458748
,1.70777E+15,-1.067736506
,1.70777E+15,-0.894222856
,1.70777E+15,-0.723139644
,1.70777E+15,-0.554707527
,1.70777E+15,-0.389152229
,1.70777E+15,-0.226714894
,1.70777E+15,-0.06764555
,1.70777E+15,0.087826341
,1.70777E+15,0.239531904
,1.70777E+15,0.387391865
,1.70777E+15,0.531426728
,1.70777E+15,0.671725094
,1.70777E+15,0.808336377
,1.70777E+15,0.941148639
,1.70777E+15,1.069870591
,1.70777E+15,1.194124103
,1.70777E+15,1.313553214
,1.70777E+15,1.427888513
,1.70777E+15,1.536969781
,1.70777E+15,1.640746117
,1.70777E+15,1.739253283
,1.70777E+15,1.832562089
,1.70777E+15,1.920720816
,1.70777E+15,2.003730059
,1.70777E+15,2.081555128
,1.70777E+15,2.154143095
,1.70777E+15,2.221413136
,1.70777E+15,2.283237457
,1.70777E+15,2.33946991
,1.70777E+15,2.390029669
,1.70777E+15,2.43496871
,1.70777E+15,2.474477053
,1.70777E+15,2.508856773
,1.70777E+15,2.538483381
,1.70777E+15,2.563753843
,1.70777E+15,2.585029602
,1.70777E+15,2.602591276
,1.70777E+15,2.616624117
,1.70777E+15,2.627228498
,1.70777E+15,2.634430408
,1.70777E+15,2.638185263
,1.70777E+15,2.638388872
,1.70777E+15,2.634902
,1.70777E+15,2.627581358
,1.70777E+15,2.616312742
,1.70777E+15,2.601035833
,1.70777E+15,2.581751347
,1.70777E+15,2.558518171
,1.70777E+15,2.531454325
,1.70777E+15,2.500741005
,1.70777E+15,2.466615915
,1.70777E+15,2.4293437
,1.70777E+15,2.389184952
,1.70777E+15,2.346387148
,1.70777E+15,2.301184416
,1.70777E+15,2.253796101
,1.70777E+15,2.204422712
,1.70777E+15,2.153244257
,1.70777E+15,2.100423098
,1.70777E+15,2.046101809
,1.70777E+15,1.990399241
,1.70777E+15,1.933400989
,1.70777E+15,1.875140309
,1.70777E+15,1.815586209
,1.70777E+15,1.754666805
,1.70777E+15,1.692302465
,1.70777E+15,1.628427386
,1.70777E+15,1.563011408
,1.70777E+15,1.496093512
,1.70777E+15,1.427820325
,1.70777E+15,1.358469605
,1.70777E+15,1.288426995
,1.70777E+15,1.218112588
,1.70777E+15,1.147891283
,1.70777E+15,1.078021049
,1.70777E+15,1.008666396
,1.70777E+15,0.939943135
,1.70777E+15,0.871951878
,1.70777E+15,0.804806113
,1.70777E+15,0.738678694
,1.70777E+15,0.673854589
,1.70777E+15,0.610754788
,1.70777E+15,0.549917519
,1.70777E+15,0.491957873
,1.70777E+15,0.43756333
,1.70777E+15,0.387632251
,1.70777E+15,0.343691498
,1.70777E+15,0.30871731
,1.70777E+15,0.288456827
,1.70777E+15,0.293477952
,1.70777E+15,0.342553586
,1.70777E+15,0.468493998
,1.70777E+15,0.726424038
,1.70777E+15,1.199348569
,1.70777E+15,1.994582295
,1.70777E+15,3.22857213
,1.70777E+15,4.987158775
,1.70777E+15,7.253687859
,1.70777E+15,9.852449417
,1.70777E+15,12.46816063
,1.70777E+15,14.73007202
,1.70777E+15,16.3059864
,1.70777E+15,16.97445488
,1.70777E+15,16.66478348
,1.70777E+15,15.45821953
,1.70777E+15,13.55089664
,1.70777E+15,11.19389153
,1.70777E+15,8.636648178
,1.70777E+15,6.093664646
,1.70777E+15,3.73541832
,1.70777E+15,1.68903923
,1.70777E+15,0.034172058
,1.70777E+15,-1.207782745
,1.70777E+15,-2.080779552
,1.70777E+15,-2.686728477
,1.70777E+15,-3.164194584
,1.70777E+15,-3.661908627
,1.70777E+15,-4.312862396
,1.70777E+15,-5.212770462
,1.70777E+15,-6.406741142
,1.70777E+15,-7.885959148
,1.70777E+15,-9.594835281
,1.70777E+15,-11.44829082
,1.70777E+15,-13.35413074
,1.70777E+15,-15.22673607
,1.70777E+15,-16.98325348
,1.70777E+15,-18.53514099
,1.70777E+15,-19.79323769
,1.70777E+15,-20.68459702
,1.70777E+15,-21.16671371
,1.70777E+15,-21.23238564
,1.70777E+15,-20.90765953
,1.70777E+15,-20.24569893
,1.70777E+15,-19.31686783
,1.70777E+15,-18.19613266
,1.70777E+15,-16.95155907
,1.70777E+15,-15.6379385
,1.70777E+15,-14.29508781
,1.70777E+15,-12.94669628
,1.70777E+15,-11.59819126
,1.70777E+15,-10.23795986
,1.70777E+15,-8.847657204
,1.70777E+15,-7.41872263
,1.70777E+15,-5.964502335
,1.70777E+15,-4.524280548
,1.70777E+15,-3.162559032
,1.70777E+15,-1.961032629
,1.70777E+15,-0.999385953
,1.70777E+15,-0.332949162
,1.70777E+15,0.019376159
,1.70777E+15,0.074357033
,1.70777E+15,-0.12203598
,1.70777E+15,-0.501777887
,1.70777E+15,-0.982278347
,1.70777E+15,-1.474820614
,1.70777E+15,-1.894093752
,1.70777E+15,-2.159878731
,1.70777E+15,-2.179156303
,1.70777E+15,-1.834716797
,1.70777E+15,-1.021343231
,1.70777E+15,0.290919781
,1.70777E+15,2.023629665
,1.70777E+15,4.007544518
,1.70777E+15,6.028770447
,1.70777E+15,7.87158823
,1.70777E+15,9.345869064
,1.70777E+15,10.30508614
,1.70777E+15,10.66070938
,1.70777E+15,10.39424038
,1.70777E+15,9.563205719
,1.70777E+15,8.29454422
,1.70777E+15,6.764110565
,1.70777E+15,5.16793251
,1.70777E+15,3.69258666
,1.70777E+15,2.490586281
,1.70777E+15,1.668507099
,1.70777E+15,1.296569824
,1.70777E+15,1.427857399
,1.70777E+15,2.094855785
,1.70777E+15,3.278198719
,1.70777E+15,4.881636143
,1.70777E+15,6.738209248
,1.70777E+15,8.639643669
,1.70777E+15,10.3694067
,1.70777E+15,11.73051071
,1.70777E+15,12.56990814
,1.70777E+15,12.7992487
,1.70777E+15,12.40659142
,1.70777E+15,11.45595551
,1.70777E+15,10.07501602
,1.70777E+15,8.431842804
,1.70777E+15,6.704532623
,1.70777E+15,5.052379608
,1.70777E+15,3.596931934
,1.70777E+15,2.41509223
,1.70777E+15,1.541071892
,1.70777E+15,0.973078966
,1.70777E+15,0.681925774
,1.70777E+15,0.620081902
,1.70777E+15,0.730398893
,1.70777E+15,0.953843594
,1.70777E+15,1.235687494
,1.70777E+15,1.529915333
,1.70777E+15,1.801865816
,1.70777E+15,2.029171944
,1.70777E+15,2.201156616
,1.70777E+15,2.316998482
,1.70777E+15,2.383125782
,1.70777E+15,2.41032362
,1.70777E+15,2.411015749
,1.70777E+15,2.39703846
,1.70777E+15,2.378031254
,1.70777E+15,2.360470295
,1.70777E+15,2.34734869
,1.70777E+15,2.338448286
,1.70777E+15,2.331015587
,1.70777E+15,2.320632219
,1.70777E+15,2.302340746
,1.70777E+15,2.272406101
,1.70777E+15,2.230926514
,1.70777E+15,2.184215069
,1.70777E+15,2.143991232
,1.70777E+15,2.121629238
,1.70777E+15,2.121047258
,1.70777E+15,2.136371374
,1.70777E+15,2.156114101
,1.70777E+15,2.170513868
,1.70777E+15,2.177616119
,1.70777E+15,2.184295416
,1.70777E+15,2.200884104
,1.70777E+15,2.232921124
,1.70777E+15,2.275638819
,1.70777E+15,2.313578606
,1.70777E+15,2.323143244
,1.70777E+15,2.274533272
,1.70777E+15,2.132635117
,1.70777E+15,1.860577703
,1.70777E+15,1.429063559
,1.70777E+15,0.82869339
,1.70777E+15,0.078306913
,1.70777E+15,-0.77485621
,1.70777E+15,-1.661617279
,1.70777E+15,-2.500695467
,1.70777E+15,-3.210169315
,1.70777E+15,-3.719120979
,1.70777E+15,-3.97898221
,1.70777E+15,-3.974811554
,1.70777E+15,-3.732433081
,1.70777E+15,-3.314729214
,1.70777E+15,-2.806731224
,1.70777E+15,-2.29703927
,1.70777E+15,-1.863243461
,1.70777E+15,-1.563192248
,1.70777E+15,-1.430775642
,1.70777E+15,-1.47640276
,1.70777E+15,-1.6919806
,1.70777E+15,-2.057082176
,1.70777E+15,-2.542754889
,1.70777E+15,-3.11274004
,1.70777E+15,-3.724470615
,1.70777E+15,-4.331711769
,1.70777E+15,-4.888813972
,1.70777E+15,-5.355531693
,1.70777E+15,-5.70130825
,1.70777E+15,-5.908129692
,1.70777E+15,-5.971455574
,1.70777E+15,-5.899282455
,1.70777E+15,-5.70983696
,1.70777E+15,-5.428490162
,1.70777E+15,-5.084314346
,1.70777E+15,-4.706626892
,1.70777E+15,-4.321911812
,1.70777E+15,-3.951528549
,1.70777E+15,-3.610420465
,1.70777E+15,-3.30621624
,1.70777E+15,-3.03660512
,1.70777E+15,-2.782846451
,1.70777E+15,-2.501016855
,1.70777E+15,-2.120526075
,1.70777E+15,-1.562827587
,1.70777E+15,-0.77642405
,1.70777E+15,0.235686541
,1.70777E+15,1.411806345
,1.70777E+15,2.646273613
,1.70777E+15,3.813001156
,1.70777E+15,4.790138245
,1.70777E+15,5.480593681
,1.70777E+15,5.825341225
,1.70777E+15,5.808460236
,1.70777E+15,5.454694748
,1.70777E+15,4.821565628
,1.70777E+15,3.988255739
,1.70777E+15,3.043064594
,1.70777E+15,2.071107864
,1.70777E+15,1.144205332
,1.70777E+15,0.314491272
,1.70777E+15,-0.387809277
,1.70777E+15,-0.953151464
,1.70777E+15,-1.389236093
,1.70777E+15,-1.716228127
,1.70777E+15,-1.961121082
,1.70777E+15,-2.15267992
,1.70777E+15,-2.319475174
,1.70777E+15,-2.49139905
,1.70777E+15,-2.70122385
,1.70777E+15,-2.98304987
,1.70777E+15,-3.36826396
,1.70777E+15,-3.881458282
,1.70777E+15,-4.536375523
,1.70777E+15,-5.329385757
,1.70777E+15,-6.231469631
,1.70777E+15,-7.18492794
,1.70777E+15,-8.109119415
,1.70777E+15,-8.913377762
,1.70777E+15,-9.512372971
,1.70777E+15,-9.839838982
,1.70777E+15,-9.857953072
,1.70777E+15,-9.561142921
,1.70777E+15,-8.974489212
,1.70777E+15,-8.147917747
,1.70777E+15,-7.147725105
,1.70777E+15,-6.047137737
,1.70777E+15,-4.917356014
,1.70777E+15,-3.820237637
,1.70777E+15,-2.803313494
,1.70777E+15,-1.897388101
,1.70777E+15,-1.116565704
,1.70777E+15,-0.460199356
,1.70777E+15,0.083849907
,1.70777E+15,0.535273314
,1.70777E+15,0.917331934
,1.70777E+15,1.253340125
,1.70777E+15,1.56386447
,1.70777E+15,1.864760399
,1.70777E+15,2.166170835
,1.70777E+15,2.472492456
,1.70777E+15,2.783131361
,1.70777E+15,3.093808889
,1.70777E+15,3.398139238
,1.70777E+15,3.689098835
,1.70777E+15,3.960082293
,1.70777E+15,4.205528259
,1.70777E+15,4.421239376
,1.70777E+15,4.60449791
,1.70777E+15,4.754057407
,1.70777E+15,4.870081425
,1.70777E+15,4.954033375
,1.70777E+15,5.008478642
,1.70777E+15,5.036783218
,1.70777E+15,5.042751312
,1.70777E+15,5.030261993
,1.70777E+15,5.002976418
,1.70777E+15,4.9641366
,1.70777E+15,4.916437626
,1.70777E+15,4.86195755
,1.70777E+15,4.802156925
,1.70777E+15,4.737933636
,1.70777E+15,4.669700146
,1.70777E+15,4.597430706
,1.70777E+15,4.520654202
,1.70777E+15,4.438417912
,1.70777E+15,4.349314213
,1.70777E+15,4.251647949
,1.70777E+15,4.143749714
,1.70777E+15,4.024370193
,1.70777E+15,3.893045187
,1.70777E+15,3.750313282
,1.70777E+15,3.597693443
,1.70777E+15,3.437420845
,1.70777E+15,3.272046566
,1.70777E+15,3.104028463
,1.70777E+15,2.935391903
,1.70777E+15,2.767509937
,1.70777E+15,2.601062298
,1.70777E+15,2.436194658
,1.70777E+15,2.272757292
,1.70777E+15,2.110509634
,1.70777E+15,1.949313164
,1.70777E+15,1.789328098
,1.70777E+15,1.631113291
,1.70777E+15,1.475559235
,1.70777E+15,1.323698521
,1.70777E+15,1.176485777
,1.70777E+15,1.034620404
,1.70777E+15,0.898456454
,1.70777E+15,0.768003881
,1.70777E+15,0.642995059
,1.70777E+15,0.52297473
,1.70777E+15,0.407367408
,1.70777E+15,0.295510799
,1.70777E+15,0.186691821
,1.70777E+15,0.080228746
,1.70777E+15,-0.024445653
,1.70777E+15,-0.127811015
,1.70777E+15,-0.230383575
,1.70777E+15,-0.332800925
,1.70777E+15,-0.435806036
,1.70777E+15,-0.54020375
,1.70777E+15,-0.646885157
,1.70777E+15,-0.756935596
,1.70777E+15,-0.871753335
,1.70777E+15,-0.993006945
,1.70777E+15,-1.122233629
,1.70777E+15,-1.260080338
,1.70777E+15,-1.40546298
,1.70777E+15,-1.555026293
,1.70777E+15,-1.703212023
,1.70777E+15,-1.842997432
,1.70777E+15,-1.967079997
,1.70777E+15,-2.06913662
,1.70777E+15,-2.144809008
,1.70777E+15,-2.192228794
,1.70777E+15,-2.212091208
,1.70777E+15,-2.207364559
,1.70777E+15,-2.182714224
,1.70777E+15,-2.143741608
,1.70777E+15,-2.096190929
,1.70777E+15,-2.045274973
,1.70777E+15,-1.995188475
,1.70777E+15,-1.948816538
,1.70777E+15,-1.907640576
,1.70777E+15,-1.871843576
,1.70777E+15,-1.840576768
,1.70777E+15,-1.812307715
,1.70777E+15,-1.785165906
,1.70777E+15,-1.757239699
,1.70777E+15,-1.726816773
,1.70777E+15,-1.692564011
,1.70777E+15,-1.653638244
,1.70777E+15,-1.609719396
,1.70777E+15,-1.561008096
,1.70777E+15,-1.508298039
,1.70777E+15,-1.453145981
,1.70777E+15,-1.39791286
,1.70777E+15,-1.345435739
,1.70777E+15,-1.298486948
,1.70777E+15,-1.259389281
,1.70777E+15,-1.229819775
,1.70777E+15,-1.210577488
,1.70777E+15,-1.201182604
,1.70777E+15,-1.199026465
,1.70777E+15,-1.198251486
,1.70777E+15,-1.19024241
,1.70777E+15,-1.16693747
,1.70777E+15,-1.124512792
,1.70777E+15,-1.064379454
,1.70777E+15,-0.991567969
,1.70777E+15,-0.91222614
,1.70777E+15,-0.831170321
,1.70777E+15,-0.749813557
,1.70777E+15,-0.665117562
,1.70777E+15,-0.570621848
,1.70777E+15,-0.460363805
,1.70777E+15,-0.334266007
,1.70777E+15,-0.200685382
,1.70777E+15,-0.073572874
,1.70777E+15,0.033214092
,1.70777E+15,0.110450983
,1.70777E+15,0.155412138
,1.70777E+15,0.173568785
,1.70777E+15,0.184966028
,1.70777E+15,0.231610179
,1.70777E+15,0.370843768
,1.70777E+15,0.650364339
,1.70777E+15,1.086698771
,1.70777E+15,1.673806429
,1.70777E+15,2.415183544
,1.70777E+15,3.338561773
,1.70777E+15,4.470594406
,1.70777E+15,5.795883656
,1.70777E+15,7.233476162
,1.70777E+15,8.640342712
,1.70777E+15,9.838428497
,1.70777E+15,10.65709972
,1.70777E+15,10.97468758
,1.70777E+15,10.74401474
,1.70777E+15,9.997198105
,1.70777E+15,8.831907272
,1.70777E+15,7.384869576
,1.70777E+15,5.799609184
,1.70777E+15,4.194056988
,1.70777E+15,2.636611462
,1.70777E+15,1.141898155
,1.70777E+15,-0.312657833
,1.70777E+15,-1.761031151
,1.70777E+15,-3.225881577
,1.70777E+15,-4.705295563
,1.70777E+15,-6.170576572
,1.70777E+15,-7.575160503
,1.70777E+15,-8.872968674
,1.70777E+15,-10.03688049
,1.70777E+15,-11.06336975
,1.70777E+15,-11.96036625
,1.70777E+15,-12.7300396
,1.70777E+15,-13.35787773
,1.70777E+15,-13.80998802
,1.70777E+15,-14.03712368
,1.70777E+15,-13.98519897
,1.70777E+15,-13.61050701
,1.70777E+15,-12.89694691
,1.70777E+15,-11.87130737
,1.70777E+15,-10.605443
,1.70777E+15,-9.201379776
,1.70777E+15,-7.777005672
,1.70777E+15,-6.461781502
,1.70777E+15,-5.384491444
,1.70777E+15,-4.643631458
,1.70777E+15,-4.278965473
,1.70777E+15,-4.262331963
,1.70777E+15,-4.507704735
,1.70777E+15,-4.89248848
,1.70777E+15,-5.282549381
,1.70777E+15,-5.555266857
,1.70777E+15,-5.616882324
,1.70777E+15,-5.41239357
,1.70777E+15,-4.927899837
,1.70777E+15,-4.18648243
,1.70777E+15,-3.23946619
,1.70777E+15,-2.155238628
,1.70777E+15,-1.00773716
,1.70777E+15,0.133639336
,1.70777E+15,1.211559296
,1.70777E+15,2.185226917
,1.70777E+15,3.031841516
,1.70777E+15,3.745467424
,1.70777E+15,4.333977699
,1.70777E+15,4.814885139
,1.70777E+15,5.210870743
,1.70777E+15,5.545714378
,1.70777E+15,5.841091156
,1.70777E+15,6.11434269
,1.70777E+15,6.377033234
,1.70777E+15,6.634190559
,1.70777E+15,6.884452343
,1.70777E+15,7.121306419
,1.70777E+15,7.33519268
,1.70777E+15,7.515893459
,1.70777E+15,7.65465498
,1.70777E+15,7.745707989
,1.70777E+15,7.787037849
,1.70777E+15,7.780410767
,1.70777E+15,7.73081255
,1.70777E+15,7.645521641
,1.70777E+15,7.533008099
,1.70777E+15,7.401823044
,1.70777E+15,7.259615421
,1.70777E+15,7.11239624
,1.70777E+15,6.964142323
,1.70777E+15,6.816739082
,1.70777E+15,6.670173645
,1.70777E+15,6.52292347
,1.70777E+15,6.372450829
,1.70777E+15,6.215708256
,1.70777E+15,6.049616337
,1.70777E+15,5.871537209
,1.70777E+15,5.679680824
,1.70777E+15,5.473294258
,1.70777E+15,5.252594948
,1.70777E+15,5.018557549
,1.70777E+15,4.772642136
,1.70777E+15,4.51651907
,1.70777E+15,4.252004147
,1.70777E+15,3.981309652
,1.70777E+15,3.706926346
,1.70777E+15,3.43039465
,1.70777E+15,3.150706291
,1.70777E+15,2.863986015
,1.70777E+15,2.564872265
,1.70777E+15,2.248479843
,1.70777E+15,1.91200006
,1.70777E+15,1.555860996
,1.70777E+15,1.184437513
,1.70777E+15,0.80605197
,1.70777E+15,0.432168156
,1.70777E+15,0.076036721
,1.70777E+15,-0.248839557
,1.70777E+15,-0.530260026
,1.70777E+15,-0.758850873
,1.70777E+15,-0.929240108
,1.70777E+15,-1.040625334
,1.70777E+15,-1.096979022
,1.70777E+15,-1.106981516
,1.70777E+15,-1.083296537
,1.70777E+15,-1.041191459
,1.70777E+15,-0.997065365
,1.70777E+15,-0.967009425
,1.70777E+15,-0.96500659
,1.70777E+15,-1.00090909
,1.70777E+15,-1.078975201
,1.70777E+15,-1.197502255
,1.70777E+15,-1.349561453
,1.70777E+15,-1.524629235
,1.70777E+15,-1.710657239
,1.70777E+15,-1.895870924
,1.70777E+15,-2.069874525
,1.70777E+15,-2.22426033
,1.70777E+15,-2.353142738
,1.70777E+15,-2.453681469
,1.70777E+15,-2.52626276
,1.70777E+15,-2.574106693
,1.70777E+15,-2.602392673
,1.70777E+15,-2.617152691
,1.70777E+15,-2.624212742
,1.70777E+15,-2.628453255
,1.70777E+15,-2.633513212
,1.70777E+15,-2.641819477
,1.70777E+15,-2.654701233
,1.70777E+15,-2.672484875
,1.70777E+15,-2.694684029
,1.70777E+15,-2.720392704
,1.70777E+15,-2.748778105
,1.70777E+15,-2.779360294
,1.70777E+15,-2.811784267
,1.70777E+15,-2.845234394
,1.70777E+15,-2.878072739
,1.70777E+15,-2.908009052
,1.70777E+15,-2.932587624
,1.70777E+15,-2.94971323
,1.70777E+15,-2.958088875
,1.70777E+15,-2.957423687
,1.70777E+15,-2.948287725
,1.70777E+15,-2.931716681
,1.70777E+15,-2.908810377
,1.70777E+15,-2.880495071
,1.70777E+15,-2.847483158
,1.70777E+15,-2.810315371
,1.70777E+15,-2.769315481
,1.70777E+15,-2.724439383
,1.70777E+15,-2.675168276
,1.70777E+15,-2.620605946
,1.70777E+15,-2.559792519
,1.70777E+15,-2.492043018
,1.70777E+15,-2.417104959
,1.70777E+15,-2.33510828
,1.70777E+15,-2.24639535
,1.70777E+15,-2.151357889
,1.70777E+15,-2.050374269
,1.70777E+15,-1.943856716
,1.70777E+15,-1.832347751
,1.70777E+15,-1.716596842
,1.70777E+15,-1.597587943
,1.70777E+15,-1.476509094
,1.70777E+15,-1.354647994
,1.70777E+15,-1.233214974
,1.70777E+15,-1.113154173
,1.70777E+15,-0.995044172
,1.70777E+15,-0.879138827
,1.70777E+15,-0.765510738
,1.70777E+15,-0.654223144
,1.70777E+15,-0.54546994
,1.70777E+15,-0.439630836
,1.70777E+15,-0.337186933
,1.70777E+15,-0.238498211
,1.70777E+15,-0.143576041
,1.70777E+15,-0.052041888
,1.70777E+15,0.036642358
,1.70777E+15,0.122822613
,1.70777E+15,0.206545681
,1.70777E+15,0.287963361
,1.70777E+15,0.368243635
,1.70777E+15,0.451090246
,1.70777E+15,0.545349479
,1.70777E+15,0.668374896
,1.70777E+15,0.847594976
,1.70777E+15,1.117069125
,1.70777E+15,1.507674098
,1.70777E+15,2.032897949
,1.70777E+15,2.676324606
,1.70777E+15,3.387746334
,1.70777E+15,4.090595722
,1.70777E+15,4.698197365
,1.70777E+15,5.133370399
,1.70777E+15,5.345353127
,1.70777E+15,5.31964016
,1.70777E+15,5.079512119
,1.70777E+15,4.680846214
,1.70777E+15,4.201700211
,1.70777E+15,3.726445913
,1.70777E+15,3.326541662
,1.70777E+15,3.044966221
,1.70777E+15,2.890311718
,1.70777E+15,2.840342045
,1.70777E+15,2.851484299
,1.70777E+15,2.87089467
,1.70777E+15,2.848370075
,1.70777E+15,2.746484756
,1.70777E+15,2.549072266
,1.70777E+15,2.268638849
,1.70777E+15,1.950840116
,1.70777E+15,1.670596719
,1.70777E+15,1.514725804
,1.70777E+15,1.553564668
,1.70777E+15,1.814330816
,1.70777E+15,2.269843578
,1.70777E+15,2.845424175
,1.70777E+15,3.437381268
,1.70777E+15,3.935256481
,1.70777E+15,4.242144108
,1.70777E+15,4.28958416
,1.70777E+15,4.045480728
,1.70777E+15,3.515074015
,1.70777E+15,2.735748291
,1.70777E+15,1.76656127
,1.70777E+15,0.674589872
,1.70777E+15,-0.47796917
,1.70777E+15,-1.64191103
,1.70777E+15,-2.782184839
,1.70777E+15,-3.873383522
,1.70777E+15,-4.893924236
,1.70777E+15,-5.822454929
,1.70777E+15,-6.636427879
,1.70777E+15,-7.311723232
,1.70777E+15,-7.824372292
,1.70777E+15,-8.15587616
,1.70777E+15,-8.30059433
,1.70777E+15,-8.271487236
,1.70777E+15,-8.101011276
,1.70777E+15,-7.835858345
,1.70777E+15,-7.527041912
,1.70777E+15,-7.219169617
,1.70777E+15,-6.942269325
,1.70777E+15,-6.707392693
,1.70777E+15,-6.50633955
,1.70777E+15,-6.316013336
,1.70777E+15,-6.106986046
,1.70777E+15,-5.853399754
,1.70777E+15,-5.539636612
,1.70777E+15,-5.16176939
,1.70777E+15,-4.726391792
,1.70777E+15,-4.249724388
,1.70777E+15,-3.756672144
,1.70777E+15,-3.277979851
,1.70777E+15,-2.845153093
,1.70777E+15,-2.48506999
,1.70777E+15,-2.21694541
,1.70777E+15,-2.053085327
,1.70777E+15,-2.002415419
,1.70777E+15,-2.07363081
,1.70777E+15,-2.276070356
,1.70777E+15,-2.619584799
,1.70777E+15,-3.112525463
,1.70777E+15,-3.753228664
,1.70777E+15,-4.515614033
,1.70777E+15,-5.337751865
,1.70777E+15,-6.121989727
,1.70777E+15,-6.748424053
,1.70777E+15,-7.097546101
,1.70777E+15,-7.075118065
,1.70777E+15,-6.631896019
,1.70777E+15,-5.7728405
,1.70777E+15,-4.554501534
,1.70777E+15,-3.072785378
,1.70777E+15,-1.44501543
,1.70777E+15,0.209522724
,1.70777E+15,1.786508083
,1.70777E+15,3.206365585
,1.70777E+15,4.413912296
,1.70777E+15,5.371491432
,1.70777E+15,6.054950714
,1.70777E+15,6.457906723
,1.70777E+15,6.599020481
,1.70777E+15,6.523375034
,1.70777E+15,6.295889378
,1.70777E+15,5.990729809
,1.70777E+15,5.680484295
,1.70777E+15,5.426950455
,1.70777E+15,5.27501297
,1.70777E+15,5.251246452
,1.70777E+15,5.367438793
,1.70777E+15,5.625917912
,1.70777E+15,6.022101402
,1.70777E+15,6.542181969
,1.70777E+15,7.15775156
,1.70777E+15,7.822310925
,1.70777E+15,8.473989487
,1.70777E+15,9.043684006
,1.70777E+15,9.464483261
,1.70777E+15,9.679987907
,1.70777E+15,9.651636124
,1.70777E+15,9.36479187
,1.70777E+15,8.831489563
,1.70777E+15,8.08767128
,1.70777E+15,7.18590641
,1.70777E+15,6.187204361
,1.70777E+15,5.154287338
,1.70777E+15,4.146066666
,1.70777E+15,3.212794304
,1.70777E+15,2.392728806
,1.70777E+15,1.711298704
,1.70777E+15,1.182136059
,1.70777E+15,0.808172226
,1.70777E+15,0.581880331
,1.70777E+15,0.485536814
,1.70777E+15,0.492900848
,1.70777E+15,0.57259202
,1.70777E+15,0.692212582
,1.70777E+15,0.822082281
,1.70777E+15,0.937863588
,1.70777E+15,1.021812677
,1.70777E+15,1.063041806
,1.70777E+15,1.057495832
,1.70777E+15,1.007915378
,1.70777E+15,0.923534036
,1.70777E+15,0.819109917
,1.70777E+15,0.713026285
,1.70777E+15,0.624527693
,1.70777E+15,0.570593953
,1.70777E+15,0.563228369
,1.70777E+15,0.607830286
,1.70777E+15,0.702892303
,1.70777E+15,0.84082979
,1.70777E+15,1.009551644
,1.70777E+15,1.194381714
,1.70777E+15,1.380023956
,1.70777E+15,1.552325249
,1.70777E+15,1.699615121
,1.70777E+15,1.813510299
,1.70777E+15,1.889210582
,1.70777E+15,1.925363302
,1.70777E+15,1.923585892
,1.70777E+15,1.887757063
,1.70777E+15,1.823191762
,1.70777E+15,1.735815883
,1.70777E+15,1.631437778
,1.70777E+15,1.515172243
,1.70777E+15,1.39104867
,1.70777E+15,1.261801958
,1.70777E+15,1.128821492
,1.70777E+15,0.992245674
,1.70777E+15,0.85119915
,1.70777E+15,0.704180002
,1.70777E+15,0.549582481
,1.70777E+15,0.386250138
,1.70777E+15,0.213894129
,1.70777E+15,0.033272982
,1.70777E+15,-0.153855801
,1.70777E+15,-0.34493041
,1.70777E+15,-0.536850929
,1.70777E+15,-0.726288319
,1.70777E+15,-0.910037041
,1.70777E+15,-1.085366011
,1.70777E+15,-1.250291228
,1.70777E+15,-1.403714895
,1.70777E+15,-1.545425773
,1.70777E+15,-1.675971508
,1.70777E+15,-1.79642272
,1.70777E+15,-1.908090115
,1.70777E+15,-2.012280464
,1.70777E+15,-2.110144138
,1.70777E+15,-2.202616215
,1.70777E+15,-2.290429115
,1.70777E+15,-2.374175072
,1.70777E+15,-2.454361439
,1.70777E+15,-2.531395674
,1.70777E+15,-2.60549736
,1.70777E+15,-2.676575899
,1.70777E+15,-2.744130611
,1.70777E+15,-2.807212353
,1.70777E+15,-2.864479065
,1.70777E+15,-2.91435504
,1.70777E+15,-2.955270767
,1.70777E+15,-2.985897064
,1.70777E+15,-3.005304813
,1.70777E+15,-3.013079166
,1.70777E+15,-3.009438753
,1.70777E+15,-2.995335579
,1.70777E+15,-2.972458839
,1.70777E+15,-2.943093777
,1.70777E+15,-2.909864902
,1.70777E+15,-2.875422239
,1.70777E+15,-2.842125416
,1.70777E+15,-2.811760902
,1.70777E+15,-2.785330772
,1.70777E+15,-2.762954473
,1.70777E+15,-2.743903637
,1.70777E+15,-2.726757526
,1.70777E+15,-2.709643841
,1.70777E+15,-2.690541029
,1.70777E+15,-2.667592049
,1.70777E+15,-2.639365196
,1.70777E+15,-2.605003834
,1.70777E+15,-2.564253807
,1.70777E+15,-2.51740098
,1.70777E+15,-2.465148449
,1.70777E+15,-2.408447742
,1.70777E+15,-2.348311186
,1.70777E+15,-2.285645723
,1.70777E+15,-2.221144199
,1.70777E+15,-2.155251265
,1.70777E+15,-2.088201523
,1.70777E+15,-2.020098686
,1.70777E+15,-1.950990677
,1.70777E+15,-1.880912542
,1.70777E+15,-1.80989325
,1.70777E+15,-1.737939119
,1.70777E+15,-1.665020943
,1.70777E+15,-1.591088533
,1.70777E+15,-1.516103506
,1.70777E+15,-1.440070271
,1.70777E+15,-1.363051653
,1.70777E+15,-1.285171866
,1.70777E+15,-1.206603289
,1.70777E+15,-1.127536654
,1.70777E+15,-1.048146367
,1.70777E+15,-0.968559563
,1.70777E+15,-0.88883096
,1.70777E+15,-0.808924317
,1.70777E+15,-0.728713453
,1.70777E+15,-0.648020864
,1.70777E+15,-0.566701472
,1.70777E+15,-0.484756052
,1.70777E+15,-0.402419388
,1.70777E+15,-0.320150822
,1.70777E+15,-0.238519698
,1.70777E+15,-0.158070207
,1.70777E+15,-0.079230219
,1.70777E+15,-0.002252318
,1.70777E+15,0.072816625
,1.70777E+15,0.146118402
,1.70777E+15,0.217914656
,1.70777E+15,0.288471729
,1.70777E+15,0.357928246
,1.70777E+15,0.426197648
,1.70777E+15,0.492940992
,1.70777E+15,0.557616949
,1.70777E+15,0.619601965
,1.70777E+15,0.678348541
,1.70777E+15,0.733525336
,1.70777E+15,0.785089493
,1.70777E+15,0.833274662
,1.70777E+15,0.878505886
,1.70777E+15,0.921273589
,1.70777E+15,0.962013066
,1.70777E+15,1.001038074
,1.70777E+15,1.038541555
,1.70777E+15,1.074633598
,1.70777E+15,1.109376907
,1.70777E+15,1.142796636
,1.70777E+15,1.174861193
,1.70777E+15,1.205443501
,1.70777E+15,1.234296679
,1.70777E+15,1.261099815
,1.70777E+15,1.285585165
,1.70777E+15,1.307675242
,1.70777E+15,1.327539444
,1.70777E+15,1.345541954
,1.70777E+15,1.362113953
,1.70777E+15,1.377602458
,1.70777E+15,1.392138958
,1.70777E+15,1.405565143
,1.70777E+15,1.417452574
,1.70777E+15,1.427227139
,1.70777E+15,1.434354305
,1.70777E+15,1.438500762
,1.70777E+15,1.43961513
,1.70777E+15,1.43792057
,1.70777E+15,1.433844805
,1.70777E+15,1.427918434
,1.70777E+15,1.420669913
,1.70777E+15,1.412534475
,1.70777E+15,1.403785348
,1.70777E+15,1.394497395
,1.70777E+15,1.384560466
,1.70777E+15,1.373733163
,1.70777E+15,1.361705065
,1.70777E+15,1.348134518
,1.70777E+15,1.332654953
,1.70777E+15,1.314871669
,1.70777E+15,1.29437387
,1.70777E+15,1.270776033
,1.70777E+15,1.243789792
,1.70777E+15,1.213311195
,1.70777E+15,1.179492593
,1.70777E+15,1.142761469
,1.70777E+15,1.103768826
,1.70777E+15,1.063285351
,1.70777E+15,1.022076964
,1.70777E+15,0.980785191
,1.70777E+15,0.939819753
,1.70777E+15,0.89927423
,1.70777E+15,0.858895063
,1.70777E+15,0.818145514
,1.70777E+15,0.776368797
,1.70777E+15,0.732999682
,1.70777E+15,0.687759101
,1.70777E+15,0.640777946
,1.70777E+15,0.592612863
,1.70777E+15,0.544145644
,1.70777E+15,0.496392488
,1.70777E+15,0.450282753
,1.70777E+15,0.406474411
,1.70777E+15,0.365247041
,1.70777E+15,0.326480895
,1.70777E+15,0.28971684
,1.70777E+15,0.254281938
,1.70777E+15,0.219454303
,1.70777E+15,0.184628278
,1.70777E+15,0.149447098
,1.70777E+15,0.113875568
,1.70777E+15,0.078181818
,1.70777E+15,0.042814337
,1.70777E+15,0.008216158
,1.70777E+15,-0.025331423
,1.70777E+15,-0.057754841
,1.70777E+15,-0.089120515
,1.70777E+15,-0.11951568
,1.70777E+15,-0.148945063
,1.70777E+15,-0.17728892
,1.70777E+15,-0.204325378
,1.70777E+15,-0.229770854
,1.70777E+15,-0.253300965
,1.70777E+15,-0.274563968
,1.70777E+15,-0.293222815
,1.70777E+15,-0.309043437
,1.70777E+15,-0.32201013
,1.70777E+15,-0.332416713
,1.70777E+15,-0.340872049
,1.70777E+15,-0.348194659
,1.70777E+15,-0.355236053
,1.70777E+15,-0.36270833
,1.70777E+15,-0.371075898
,1.70777E+15,-0.380528778
,1.70777E+15,-0.391024351
,1.70777E+15,-0.402366728
,1.70777E+15,-0.414275408
,1.70777E+15,-0.426404357
,1.70777E+15,-0.438323557
,1.70777E+15,-0.449511141
,1.70777E+15,-0.459393829
,1.70777E+15,-0.467441469
,1.70777E+15,-0.473287731
,1.70777E+15,-0.47682941
,1.70777E+15,-0.478264779
,1.70777E+15,-0.478055179
,1.70777E+15,-0.476824433
,1.70777E+15,-0.475235075
,1.70777E+15,-0.473871589
,1.70777E+15,-0.473145723
,1.70777E+15,-0.47325173
,1.70777E+15,-0.474190921
,1.70777E+15,-0.475841552
,1.70777E+15,-0.47802639
,1.70777E+15,-0.480550736
,1.70777E+15,-0.483219177
,1.70777E+15,-0.485859483
,1.70777E+15,-0.488369465
,1.70777E+15,-0.490767777
,1.70777E+15,-0.493216068
,1.70777E+15,-0.496000707
,1.70777E+15,-0.499468029
,1.70777E+15,-0.503901124
,1.70777E+15,-0.509361386
,1.70777E+15,-0.515561581
,1.70777E+15,-0.521828055
,1.70777E+15,-0.527170181
,1.70777E+15,-0.530442059
,1.70777E+15,-0.530554175
,1.70777E+15,-0.526670694
,1.70777E+15,-0.518330932
,1.70777E+15,-0.505472541
,1.70777E+15,-0.488381237
,1.70777E+15,-0.467608154
,1.70777E+15,-0.443883896
,1.70777E+15,-0.418033004
,1.70777E+15,-0.390883267
,1.70777E+15,-0.36318332
,1.70777E+15,-0.335556328
,1.70777E+15,-0.308503002
,1.70777E+15,-0.28243494
,1.70777E+15,-0.257698953
,1.70777E+15,-0.234563559
,1.70777E+15,-0.213171095
,1.70777E+15,-0.193489462
,1.70777E+15,-0.17530489
,1.70777E+15,-0.158279002
,1.70777E+15,-0.14205268
,1.70777E+15,-0.126344189
,1.70777E+15,-0.110998794
,1.70777E+15,-0.09598124
,1.70777E+15,-0.081327438
,1.70777E+15,-0.067084268
,1.70777E+15,-0.053258028
,1.70777E+15,-0.039777309
,1.70777E+15,-0.02648161
,1.70777E+15,-0.013148174
,1.70777E+15,0.000458546
,1.70777E+15,0.014545679
,1.70777E+15,0.029269367
,1.70777E+15,0.04471961
,1.70777E+15,0.06090096
,1.70777E+15,0.077716716
,1.70777E+15,0.094975084
,1.70777E+15,0.112415507
,1.70777E+15,0.129732788
,1.70777E+15,0.146588773
,1.70777E+15,0.162623554
,1.70777E+15,0.177481711
,1.70777E+15,0.190861583
,1.70777E+15,0.20257923
,1.70777E+15,0.212616235
,1.70777E+15,0.221116394
,1.70777E+15,0.228326768
,1.70777E+15,0.234517485
,1.70777E+15,0.239926681
,1.70777E+15,0.244756684
,1.70777E+15,0.249204785
,1.70777E+15,0.253483146
,1.70777E+15,0.257800549
,1.70777E+15,0.26231885
,1.70777E+15,0.26711157
,1.70777E+15,0.272140801
,1.70777E+15,0.277253717
,1.70777E+15,0.28219384
,1.70777E+15,0.286627054
,1.70777E+15,0.290187836
,1.70777E+15,0.292545438
,1.70777E+15,0.293475479
,1.70777E+15,0.292911738
,1.70777E+15,0.290956765
,1.70777E+15,0.287847459
,1.70777E+15,0.283892363
,1.70777E+15,0.279406279
,1.70777E+15,0.274660707
,1.70777E+15,0.269856483
,1.70777E+15,0.265113324
,1.70777E+15,0.260468692
,1.70777E+15,0.255885541
,1.70777E+15,0.251271576
,1.70777E+15,0.246506229
,1.70777E+15,0.241466284
,1.70777E+15,0.236050114
,1.70777E+15,0.230202749
,1.70777E+15,0.223933846
,1.70777E+15,0.217317879
,1.70777E+15,0.210473269
,1.70777E+15,0.203527063
,1.70777E+15,0.196584031
,1.70777E+15,0.189712197
,1.70777E+15,0.182939529
,1.70777E+15,0.176252738
,1.70777E+15,0.169594333
,1.70777E+15,0.162863359
,1.70777E+15,0.155928135
,1.70777E+15,0.148652047
,1.70777E+15,0.140922278
,1.70777E+15,0.132668316
,1.70777E+15,0.123861179
,1.70777E+15,0.114490069
,1.70777E+15,0.104525618
,1.70777E+15,0.093892999
,1.70777E+15,0.082476795
,1.70777E+15,0.070157662
,1.70777E+15,0.056858286
,1.70777E+15,0.042579517
,1.70777E+15,0.027419716
,1.70777E+15,0.01157254
,1.70777E+15,-0.004698634
,1.70777E+15,-0.02110596
,1.70777E+15,-0.037391722
,1.70777E+15,-0.053367212
,1.70777E+15,-0.068912327
,1.70777E+15,-0.083939888
,1.70777E+15,-0.098352037
,1.70777E+15,-0.112021096
,1.70777E+15,-0.12481337
,1.70777E+15,-0.136645526
,1.70777E+15,-0.147538185
,1.70777E+15,-0.157630593
,1.70777E+15,-0.167145148
,1.70777E+15,-0.17631872
,1.70777E+15,-0.185329288
,1.70777E+15,-0.194245189
,1.70777E+15,-0.203012541
,1.70777E+15,-0.211479053
,1.70777E+15,-0.21943894
,1.70777E+15,-0.22667563
,1.70777E+15,-0.232986599
,1.70777E+15,-0.238196433
,1.70777E+15,-0.242174298
,1.70777E+15,-0.24485521
,1.70777E+15,-0.246247754
,1.70777E+15,-0.246417493
,1.70777E+15,-0.245462269
,1.70777E+15,-0.243517756
,1.70777E+15,-0.240795881
,1.70777E+15,-0.237600297
,1.70777E+15,-0.234276995
,1.70777E+15,-0.23111859
,1.70777E+15,-0.228272796
,1.70777E+15,-0.225691155
,1.70777E+15,-0.223132074
,1.70777E+15,-0.220221698
,1.70777E+15,-0.216557994
,1.70777E+15,-0.211819798
,1.70777E+15,-0.20584181
,1.70777E+15,-0.198642313
,1.70777E+15,-0.190412045
,1.70777E+15,-0.181477264
,1.70777E+15,-0.172244906
,1.70777E+15,-0.163138419
,1.70777E+15,-0.154531762
,1.70777E+15,-0.146685168
,1.70777E+15,-0.139697343
,1.70777E+15,-0.133497387
,1.70777E+15,-0.127883136
,1.70777E+15,-0.122591525
,1.70777E+15,-0.117373474
,1.70777E+15,-0.112041742
,1.70777E+15,-0.10647364
,1.70777E+15,-0.100575835
,1.70777E+15,-0.094243295
,1.70777E+15,-0.087348387
,1.70777E+15,-0.079765022
,1.70777E+15,-0.071400359
,1.70777E+15,-0.062211569
,1.70777E+15,-0.052214231
,1.70777E+15,-0.041499902
,1.70777E+15,-0.030258015
,1.70777E+15,-0.018777519
,1.70777E+15,-0.007421136
,1.70777E+15,0.003409468
,1.70777E+15,0.013299383
,1.70777E+15,0.02183599
,1.70777E+15,0.028634898
,1.70777E+15,0.033398442
,1.70777E+15,0.035994567
,1.70777E+15,0.036517888
,1.70777E+15,0.035311237
,1.70777E+15,0.032949015
,1.70777E+15,0.030186422
,1.70777E+15,0.027873375
,1.70777E+15,0.026836537
,1.70777E+15,0.027751267
,1.70777E+15,0.031040475
,1.70777E+15,0.03683041
,1.70777E+15,0.044969946
,1.70777E+15,0.055098042
,1.70777E+15,0.066732347
,1.70777E+15,0.079343766
,1.70777E+15,0.092384212
,1.70777E+15,0.105262689
,1.70777E+15,0.117311753
,1.70777E+15,0.127812296
,1.70777E+15,0.136116564
,1.70777E+15,0.141840726
,1.70777E+15,0.145034924
,1.70777E+15,0.146224439
,1.70777E+15,0.146278143
,1.70777E+15,0.146158785
,1.70777E+15,0.146664217
,1.70777E+15,0.148257703
,1.70777E+15,0.151028812
,1.70777E+15,0.154765338
,1.70777E+15,0.159085825
,1.70777E+15,0.163579404
,1.70777E+15,0.167911142
,1.70777E+15,0.171873346
,1.70777E+15,0.175382018
,1.70777E+15,0.178428218
,1.70777E+15,0.181009755
,1.70777E+15,0.183078557
,1.70777E+15,0.184514418
,1.70777E+15,0.185103446
,1.70777E+15,0.184509411
,1.70777E+15,0.182267964
,1.70777E+15,0.177846253
,1.70777E+15,0.170779318
,1.70777E+15,0.16085583
,1.70777E+15,0.148282364
,1.70777E+15,0.133730009
,1.70777E+15,0.118219465
,1.70777E+15,0.102905467
,1.70777E+15,0.08887057
,1.70777E+15,0.076987557
,1.70777E+15,0.067831069
,1.70777E+15,0.0616084
,1.70777E+15,0.058134634
,1.70777E+15,0.056900095
,1.70777E+15,0.057224192
,1.70777E+15,0.058426589
,1.70777E+15,0.05993459
,1.70777E+15,0.061290976
,1.70777E+15,0.062107865
,1.70777E+15,0.06205029
,1.70777E+15,0.060882241
,1.70777E+15,0.058539562
,1.70777E+15,0.05516845
,1.70777E+15,0.051085331
,1.70777E+15,0.046663594
,1.70777E+15,0.042195283
,1.70777E+15,0.037779905
,1.70777E+15,0.033289611
,1.70777E+15,0.028449949
,1.70777E+15,0.023006691
,1.70777E+15,0.016875492
,1.70777E+15,0.01018809
,1.70777E+15,0.003219159
,1.70777E+15,-0.003765214
,1.70777E+15,-0.010650082
,1.70777E+15,-0.017508738
,1.70777E+15,-0.024511576
,1.70777E+15,-0.031775136
,1.70777E+15,-0.039237145
,1.70777E+15,-0.046609696
,1.70777E+15,-0.053428181
,1.70777E+15,-0.059179459
,1.70777E+15,-0.063458376
,1.70777E+15,-0.066086397
,1.70777E+15,-0.067145161
,1.70777E+15,-0.066923223
,1.70777E+15,-0.065815426
,1.70777E+15,-0.064222246
,1.70777E+15,-0.062472876
,1.70777E+15,-0.060771741
,1.70777E+15,-0.059166811
,1.70777E+15,-0.057548832
,1.70777E+15,-0.05568764
,1.70777E+15,-0.053299248
,1.70777E+15,-0.05012922
,1.70777E+15,-0.046030283
,1.70777E+15,-0.0410055
,1.70777E+15,-0.035197303
,1.70777E+15,-0.028828397
,1.70777E+15,-0.022126142
,1.70777E+15,-0.015267241
,1.70777E+15,-0.008359846
,1.70777E+15,-0.001457352
,1.70777E+15,0.005412605
,1.70777E+15,0.012222029
,1.70777E+15,0.018930711
,1.70777E+15,0.025491331
,1.70777E+15,0.031864706
,1.70777E+15,0.038031921
,1.70777E+15,0.043999311
,1.70777E+15,0.049800485
,1.70777E+15,0.055499304
,1.70777E+15,0.061200019
,1.70777E+15,0.067066498
,1.70777E+15,0.073343962
,1.70777E+15,0.08037027
,1.70777E+15,0.088558167
,1.70777E+15,0.098342359
,1.70777E+15,0.110108241
,1.70777E+15,0.124119014
,1.70777E+15,0.140438288
,1.70777E+15,0.158845127
,1.70777E+15,0.178762004
,1.70777E+15,0.199234203
,1.70777E+15,0.218995079
,1.70777E+15,0.236618012
,1.70777E+15,0.250709355
,1.70777E+15,0.260081708
,1.70777E+15,0.263866246
,1.70777E+15,0.261550605
,1.70777E+15,0.252954781
,1.70777E+15,0.238178417
,1.70777E+15,0.217558384
,1.70777E+15,0.191658318
,1.70777E+15,0.161273569
,1.70777E+15,0.127406955
,1.70777E+15,0.091195434
,1.70777E+15,0.053807378
,1.70777E+15,0.016332269
,1.70777E+15,-0.020323962
,1.70777E+15,-0.055502385
,1.70777E+15,-0.088765904
,1.70777E+15,-0.119779423
,1.70777E+15,-0.148154199
,1.70777E+15,-0.173362121
,1.70777E+15,-0.194810495
,1.70777E+15,-0.212075084
,1.70777E+15,-0.22519049
,1.70777E+15,-0.234866396
,1.70777E+15,-0.242530018
,1.70777E+15,-0.250144571
,1.70777E+15,-0.259829193
,1.70777E+15,-0.273402214
,1.70777E+15,-0.292008013
,1.70777E+15,-0.31593588
,1.70777E+15,-0.344634205
,1.70777E+15,-0.376844794
,1.70777E+15,-0.410776883
,1.70777E+15,-0.444284171
,1.70777E+15,-0.475033313
,1.70777E+15,-0.500641525
,1.70777E+15,-0.518705428
,1.70777E+15,-0.526384115
,1.70777E+15,-0.507662773
,1.70777E+15,-0.398271114
,1.70777E+15,-0.076591119
,1.70777E+15,0.564820468
,1.70777E+15,1.524324179
,1.70777E+15,2.668393135
,1.70777E+15,3.783751965
,1.70777E+15,4.650175571
,1.70777E+15,5.097798347
,1.70777E+15,5.038645744
,1.70777E+15,4.473259449
,1.70777E+15,3.476755619
,1.70777E+15,2.171797037
,1.70777E+15,0.699600458
,1.70777E+15,-0.8020702
,1.70777E+15,-2.212498903
,1.70777E+15,-3.436205864
,1.70777E+15,-4.407749176
,1.70777E+15,-5.093301296
,1.70777E+15,-5.488916874
,1.70777E+15,-5.616008759
,1.70777E+15,-5.514962196
,1.70777E+15,-5.237871647
,1.70777E+15,-4.8412714
,1.70777E+15,-4.379615307
,1.70777E+15,-3.900128365
,1.70777E+15,-3.439440966
,1.70777E+15,-3.022088051
,1.70777E+15,-2.660710335
,1.70777E+15,-2.357643604
,1.70777E+15,-2.107390881
,1.70777E+15,-1.89933753
,1.70777E+15,-1.720227122
,1.70777E+15,-1.556224346
,1.70777E+15,-1.394596815
,1.70777E+15,-1.225043535
,1.70777E+15,-1.040643215
,1.70777E+15,-0.838388562
,1.70777E+15,-0.619270146
,1.70777E+15,-0.387858033
,1.70777E+15,-0.151381254
,1.70777E+15,0.081545711
,1.70777E+15,0.302257717
,1.70777E+15,0.503126442
,1.70777E+15,0.678197384
,1.70777E+15,0.823412001
,1.70777E+15,0.93663913
,1.70777E+15,1.017644167
,1.70777E+15,1.067925453
,1.70777E+15,1.090371847
,1.70777E+15,1.088878155
,1.70777E+15,1.068151712
,1.70777E+15,1.033794761
,1.70777E+15,0.992447495
,1.70777E+15,0.951702654
,1.70777E+15,0.919702709
,1.70777E+15,0.904486179
,1.70777E+15,0.913185477
,1.70777E+15,0.951212645
,1.70777E+15,1.021524668
,1.70777E+15,1.124050498
,1.70777E+15,1.255469799
,1.70777E+15,1.409458876
,1.70777E+15,1.57730031
,1.70777E+15,1.748768806
,1.70777E+15,1.913277149
,1.70777E+15,2.061149597
,1.70777E+15,2.184763432
,1.70777E+15,2.279313803
,1.70777E+15,2.343098164
,1.70777E+15,2.377396584
,1.70777E+15,2.386116982
,1.70777E+15,2.375370979
,1.70777E+15,2.353110313
,1.70777E+15,2.328969955
,1.70777E+15,2.314305067
,1.70777E+15,2.3212955
,1.70777E+15,2.359499931
,1.70777E+15,2.430905819
,1.70777E+15,2.527064323
,1.70777E+15,2.630273819
,1.70777E+15,2.717814922
,1.70777E+15,2.767220974
,1.70777E+15,2.761039972
,1.70777E+15,2.690305948
,1.70777E+15,2.55619359
,1.70777E+15,2.369436502
,1.70777E+15,2.147739649
,1.70777E+15,1.912033439
,1.70777E+15,1.68256402
,1.70777E+15,1.47826457
,1.70777E+15,1.326796293
,1.70777E+15,1.284011602
,1.70777E+15,1.435329914
,1.70777E+15,1.84620142
,1.70777E+15,2.486470222
,1.70777E+15,3.207433224
,1.70777E+15,3.799037457
,1.70777E+15,4.071260452
,1.70777E+15,3.907987118
,1.70777E+15,3.286889076
,1.70777E+15,2.273282528
,1.70777E+15,0.995275378
,1.70777E+15,-0.390324116
,1.70777E+15,-1.731512547
,1.70777E+15,-2.906457663
,1.70777E+15,-3.836605072
,1.70777E+15,-4.487909317
,1.70777E+15,-4.864086151
,1.70777E+15,-4.996321678
,1.70777E+15,-4.932551384
,1.70777E+15,-4.727870941
,1.70777E+15,-4.436728477
,1.70777E+15,-4.107237816
,1.70777E+15,-3.777705908
,1.70777E+15,-3.474976301
,1.70777E+15,-3.213858843
,1.70777E+15,-2.997896671
,1.70777E+15,-2.822491169
,1.70777E+15,-2.679477215
,1.70777E+15,-2.560503483
,1.70777E+15,-2.458160877
,1.70777E+15,-2.36591053
,1.70777E+15,-2.277817011
,1.70777E+15,-2.187980652
,1.70777E+15,-2.088848591
,1.70777E+15,-1.968196154
,1.70777E+15,-1.805991173
,1.70777E+15,-1.572981715
,1.70777E+15,-1.233543992
,1.70777E+15,-0.754223824
,1.70777E+15,-0.114716232
,1.70777E+15,0.683576286
,1.70777E+15,1.613285899
,1.70777E+15,2.621209621
,1.70777E+15,3.633042336
,1.70777E+15,4.562968254
,1.70777E+15,5.327069283
,1.70777E+15,5.857382774
,1.70777E+15,6.112594128
,1.70777E+15,6.082470417
,1.70777E+15,5.785409927
,1.70777E+15,5.261018753
,1.70777E+15,4.561442375
,1.70777E+15,3.744590759
,1.70777E+15,2.869529486
,1.70777E+15,1.992320538
,1.70777E+15,1.161155462
,1.70777E+15,0.411102533
,1.70777E+15,-0.239756823
,1.70777E+15,-0.790396452
,1.70777E+15,-1.252384424
,1.70777E+15,-1.64299345
,1.70777E+15,-1.979055166
,1.70777E+15,-2.273425102
,1.70777E+15,-2.533943653
,1.70777E+15,-2.763928652
,1.70777E+15,-2.963372946
,1.70777E+15,-3.130470037
,1.70777E+15,-3.263510466
,1.70777E+15,-3.362871408
,1.70777E+15,-3.431970358
,1.70777E+15,-3.476992369
,1.70777E+15,-3.507232904
,1.70777E+15,-3.535899162
,1.70777E+15,-3.578534126
,1.70777E+15,-3.649047136
,1.70777E+15,-3.755894184
,1.70777E+15,-3.899783611
,1.70777E+15,-4.073099136
,1.70777E+15,-4.260857582
,1.70777E+15,-4.442857742
,1.70777E+15,-4.596609116
,1.70777E+15,-4.70067358
,1.70777E+15,-4.735865593
,1.70777E+15,-4.682648659
,1.70777E+15,-4.523171425
,1.70777E+15,-4.252937317
,1.70777E+15,-3.890004635
,1.70777E+15,-3.47398591
,1.70777E+15,-3.061337709
,1.70777E+15,-2.72171402
,1.70777E+15,-2.532799482
,1.70777E+15,-2.568924189
,1.70777E+15,-2.883110046
,1.70777E+15,-3.488238573
,1.70777E+15,-4.345105171
,1.70777E+15,-5.363449574
,1.70777E+15,-6.416764259
,1.70777E+15,-7.365487099
,1.70777E+15,-8.081210136
,1.70777E+15,-8.46632576
,1.70777E+15,-8.466107368
,1.70777E+15,-8.072446823
,1.70777E+15,-7.320128441
,1.70777E+15,-6.277511597
,1.70777E+15,-5.033952236
,1.70777E+15,-3.686344147
,1.70777E+15,-2.32682085
,1.70777E+15,-1.033111572
,1.70777E+15,0.137649059
,1.70777E+15,1.151475906
,1.70777E+15,1.996757746
,1.70777E+15,2.680826187
,1.70777E+15,3.224811077
,1.70777E+15,3.657839775
,1.70777E+15,4.011520386
,1.70777E+15,4.315425873
,1.70777E+15,4.593963623
,1.70777E+15,4.864694595
,1.70777E+15,5.137950897
,1.70777E+15,5.41745615
,1.70777E+15,5.701586723
,1.70777E+15,5.98492527
,1.70777E+15,6.259842396
,1.70777E+15,6.51792717
,1.70777E+15,6.751166821
,1.70777E+15,6.952851295
,1.70777E+15,7.118213654
,1.70777E+15,7.244771004
,1.70777E+15,7.33228302
,1.70777E+15,7.382304192
,1.70777E+15,7.397472858
,1.70777E+15,7.380812168
,1.70777E+15,7.335280418
,1.70777E+15,7.263764381
,1.70777E+15,7.169625282
,1.70777E+15,7.057616234
,1.70777E+15,6.934637547
,1.70777E+15,6.810032845
,1.70777E+15,6.69637537
,1.70777E+15,6.612474442
,1.70777E+15,6.587948322
,1.70777E+15,6.663752079
,1.70777E+15,6.882860184
,1.70777E+15,7.273378372
,1.70777E+15,7.833256721
,1.70777E+15,8.523962021
,1.70777E+15,9.274267197
,1.70777E+15,9.991350174
,1.70777E+15,10.57564259
,1.70777E+15,10.93604851
,1.70777E+15,11.0025816
,1.70777E+15,10.7348175
,1.70777E+15,10.12579632
,1.70777E+15,9.201207161
,1.70777E+15,8.013872147
,1.70777E+15,6.634759426
,1.70777E+15,5.143268108
,1.70777E+15,3.619392157
,1.70777E+15,2.137411118
,1.70777E+15,0.759010077
,1.70777E+15,-0.473166704
,1.70777E+15,-1.537633896
,1.70777E+15,-2.430437565
,1.70777E+15,-3.158356667
,1.70777E+15,-3.732876778
,1.70777E+15,-4.167653084
,1.70777E+15,-4.479057789
,1.70777E+15,-4.687158108
,1.70777E+15,-4.815288067
,1.70777E+15,-4.888310432
,1.70777E+15,-4.930480957
,1.70777E+15,-4.963508606
,1.70777E+15,-5.004879951
,1.70777E+15,-5.066427708
,1.70777E+15,-5.153392792
,1.70777E+15,-5.264559269
,1.70777E+15,-5.393886566
,1.70777E+15,-5.532963276
,1.70777E+15,-5.673126698
,1.70777E+15,-5.807124138
,1.70777E+15,-5.93047905
,1.70777E+15,-6.041787148
,1.70777E+15,-6.141394615
,1.70777E+15,-6.229261398
,1.70777E+15,-6.303365707
,1.70777E+15,-6.35945797
,1.70777E+15,-6.392121315
,1.70777E+15,-6.396543026
,1.70777E+15,-6.370276928
,1.70777E+15,-6.314301491
,1.70777E+15,-6.232945442
,1.70777E+15,-6.132804871
,1.70777E+15,-6.021185398
,1.70777E+15,-5.904481888
,1.70777E+15,-5.786613464
,1.70777E+15,-5.667621613
,1.70777E+15,-5.543032646
,1.70777E+15,-5.404886246
,1.70777E+15,-5.24454689
,1.70777E+15,-5.056018829
,1.70777E+15,-4.837964058
,1.70777E+15,-4.593622208
,1.70777E+15,-4.329242706
,1.70777E+15,-4.052377701
,1.70777E+15,-3.771095276
,1.70777E+15,-3.493704081
,1.70777E+15,-3.227900505
,1.70777E+15,-2.97951293
,1.70777E+15,-2.751574993
,1.70777E+15,-2.543988228
,1.70777E+15,-2.353834629
,1.70777E+15,-2.176187992
,1.70777E+15,-2.005362034
,1.70777E+15,-1.836410284
,1.70777E+15,-1.666199923
,1.70777E+15,-1.493893623
,1.70777E+15,-1.321376562
,1.70777E+15,-1.153775454
,1.70777E+15,-0.999346673
,1.70777E+15,-0.867857695
,1.70777E+15,-0.767785728
,1.70777E+15,-0.703978956
,1.70777E+15,-0.677099705
,1.70777E+15,-0.685605645
,1.70777E+15,-0.731489778
,1.70777E+15,-0.827962399
,1.70777E+15,-1.001470804
,1.70777E+15,-1.28272903
,1.70777E+15,-1.691076756
,1.70777E+15,-2.221261024
,1.70777E+15,-2.838951111
,1.70777E+15,-3.48567605
,1.70777E+15,-4.089248657
,1.70777E+15,-4.575626373
,1.70777E+15,-4.880753517
,1.70777E+15,-4.961276531
,1.70777E+15,-4.801701546
,1.70777E+15,-4.415522575
,1.70777E+15,-3.839808702
,1.70777E+15,-3.125477552
,1.70777E+15,-2.327068806
,1.70777E+15,-1.495031834
,1.70777E+15,-0.671142101
,1.70777E+15,0.114191532
,1.70777E+15,0.843535423
,1.70777E+15,1.512134314
,1.70777E+15,2.124742985
,1.70777E+15,2.690446854
,1.70777E+15,3.217788696
,1.70777E+15,3.711774349
,1.70777E+15,4.172879696
,1.70777E+15,4.597562313
,1.70777E+15,4.979656696
,1.70777E+15,5.312170029
,1.70777E+15,5.589246273
,1.70777E+15,5.807941914
,1.70777E+15,5.969171047
,1.70777E+15,6.077597141
,1.70777E+15,6.141013145
,1.70777E+15,6.169632435
,1.70777E+15,6.175077915
,1.70777E+15,6.16894722
,1.70777E+15,6.161283493
,1.70777E+15,6.159374714
,1.70777E+15,6.167098999
,1.70777E+15,6.184859753
,1.70777E+15,6.210032463
,1.70777E+15,6.237773895
,1.70777E+15,6.262012482
,1.70777E+15,6.276444435
,1.70777E+15,6.275374413
,1.70777E+15,6.254292488
,1.70777E+15,6.210163593
,1.70777E+15,6.14147377
,1.70777E+15,6.048087597
,1.70777E+15,5.931003571
,1.70777E+15,5.792073727
,1.70777E+15,5.633733273
,1.70777E+15,5.458737373
,1.70777E+15,5.269900322
,1.70777E+15,5.069861412
,1.70777E+15,4.860909462
,1.70777E+15,4.644883633
,1.70777E+15,4.42315197
,1.70777E+15,4.196653366
,1.70777E+15,3.965996742
,1.70777E+15,3.731585979
,1.70777E+15,3.493737459
,1.70777E+15,3.252763271
,1.70777E+15,3.009021044
,1.70777E+15,2.762951374
,1.70777E+15,2.515116215
,1.70777E+15,2.266211033
,1.70777E+15,2.017021418
,1.70777E+15,1.768328786
,1.70777E+15,1.520819545
,1.70777E+15,1.275049686
,1.70777E+15,1.031486511
,1.70777E+15,0.790591061
,1.70777E+15,0.552893281
,1.70777E+15,0.319023371
,1.70777E+15,0.089690804
,1.70777E+15,-0.134365678
,1.70777E+15,-0.352427721
,1.70777E+15,-0.563830018
,1.70777E+15,-0.767985582
,1.70777E+15,-0.964419961
,1.70777E+15,-1.152816296
,1.70777E+15,-1.333049893
,1.70777E+15,-1.505181074
,1.70777E+15,-1.669401407
,1.70777E+15,-1.825961351
,1.70777E+15,-1.975108147
,1.70777E+15,-2.117038727
,1.70777E+15,-2.251850843
,1.70777E+15,-2.379493713
,1.70777E+15,-2.499750137
,1.70777E+15,-2.612270355
,1.70777E+15,-2.71664834
,1.70777E+15,-2.812516928
,1.70777E+15,-2.899632931
,1.70777E+15,-2.977937698
,1.70777E+15,-3.047581673
,1.70777E+15,-3.108914614
,1.70777E+15,-3.162446022
,1.70777E+15,-3.208785772
,1.70777E+15,-3.248577118
,1.70777E+15,-3.282433271
,1.70777E+15,-3.310881376
,1.70777E+15,-3.334322214
,1.70777E+15,-3.353011131
,1.70777E+15,-3.3670578
,1.70777E+15,-3.376440048
,1.70777E+15,-3.381027937
,1.70777E+15,-3.380618811
,1.70777E+15,-3.374976397
,1.70777E+15,-3.363873482
,1.70777E+15,-3.347131252
,1.70777E+15,-3.324646711
,1.70777E+15,-3.296404839
,1.70777E+15,-3.262480974
,1.70777E+15,-3.223034382
,1.70777E+15,-3.178291559
,1.70777E+15,-3.128524542
,1.70777E+15,-3.074028492
,1.70777E+15,-3.015099287
,1.70777E+15,-2.952003479
,1.70777E+15,-2.884944439
,1.70777E+15,-2.814036846
,1.70777E+15,-2.739300966
,1.70777E+15,-2.660688162
,1.70777E+15,-2.578143597
,1.70777E+15,-2.491688013
,1.70777E+15,-2.401489973
,1.70777E+15,-2.307917356
,1.70777E+15,-2.211558104
,1.70777E+15,-2.113203049
,1.70777E+15,-2.013799906
,1.70777E+15,-1.91440618
,1.70777E+15,-1.816152334
,1.70777E+15,-1.720189333
,1.70777E+15,-1.627587438
,1.70777E+15,-1.539199471
,1.70777E+15,-1.455303907
,1.70777E+15,-1.374268293
,1.70777E+15,-1.289889693
,1.70777E+15,-1.188907266
,1.70777E+15,-1.050813794
,1.70777E+15,-0.850053251
,1.70777E+15,-0.557602704
,1.70777E+15,-0.140657544
,1.70777E+15,0.432830155
,1.70777E+15,1.179423094
,1.70777E+15,2.08374691
,1.70777E+15,3.092428923
,1.70777E+15,4.121078014
,1.70777E+15,5.069932938
,1.70777E+15,5.842226505
,1.70777E+15,6.360115528
,1.70777E+15,6.575246334
,1.70777E+15,6.473379612
,1.70777E+15,6.073719501
,1.70777E+15,5.423560619
,1.70777E+15,4.589200974
,1.70777E+15,3.64520359
,1.70777E+15,2.664447784
,1.70777E+15,1.71056509
,1.70777E+15,0.833153009
,1.70777E+15,0.065295219
,1.70777E+15,-0.57728374
,1.70777E+15,-1.095953107
,1.70777E+15,-1.508137584
,1.70777E+15,-1.844969749
,1.70777E+15,-2.146516562
,1.70777E+15,-2.454489231
,1.70777E+15,-2.804149151
,1.70777E+15,-3.218377113
,1.70777E+15,-3.706240177
,1.70777E+15,-4.265789032
,1.70777E+15,-4.887889385
,1.70777E+15,-5.556964397
,1.70777E+15,-6.247829437
,1.70777E+15,-6.922546864
,1.70777E+15,-7.531631947
,1.70777E+15,-8.020308495
,1.70777E+15,-8.33746624
,1.70777E+15,-8.444301605
,1.70777E+15,-8.320455551
,1.70777E+15,-7.966635704
,1.70777E+15,-7.403723717
,1.70777E+15,-6.669020176
,1.70777E+15,-5.810630798
,1.70777E+15,-4.881093025
,1.70777E+15,-3.931286335
,1.70777E+15,-3.005461454
,1.70777E+15,-2.137868881
,1.70777E+15,-1.351105213
,1.70777E+15,-0.656028032
,1.70777E+15,-0.052991629
,1.70777E+15,0.46589303
,1.70777E+15,0.913917065
,1.70777E+15,1.306842566
,1.70777E+15,1.66028595
,1.70777E+15,1.987691879
,1.70777E+15,2.29905057
,1.70777E+15,2.600385189
,1.70777E+15,2.893921614
,1.70777E+15,3.178766727
,1.70777E+15,3.451879263
,1.70777E+15,3.709131002
,1.70777E+15,3.946283817
,1.70777E+15,4.159766674
,1.70777E+15,4.347175598
,1.70777E+15,4.507472515
,1.70777E+15,4.640918732
,1.70777E+15,4.748820782
,1.70777E+15,4.833183289
,1.70777E+15,4.896347523
,1.70777E+15,4.940674782
,1.70777E+15,4.968299389
,1.70777E+15,4.980965137
,1.70777E+15,4.979940891
,1.70777E+15,4.966011047
,1.70777E+15,4.939540386
,1.70777E+15,4.900597572
,1.70777E+15,4.849117279
,1.70777E+15,4.785071373
,1.70777E+15,4.708616734
,1.70777E+15,4.620188236
,1.70777E+15,4.520524025
,1.70777E+15,4.410629749
,1.70777E+15,4.291702271
,1.70777E+15,4.165035248
,1.70777E+15,4.031919479
,1.70777E+15,3.893555403
,1.70777E+15,3.750986576
,1.70777E+15,3.605062485
,1.70777E+15,3.45642972
,1.70777E+15,3.305548429
,1.70777E+15,3.152728081
,1.70777E+15,2.998171806
,1.70777E+15,2.842025518
,1.70777E+15,2.684423923
,1.70777E+15,2.525527954
,1.70777E+15,2.365548849
,1.70777E+15,2.204755783
,1.70777E+15,2.043470383
,1.70777E+15,1.882052898
,1.70777E+15,1.720885992
,1.70777E+15,1.560355663
,1.70777E+15,1.40083468
,1.70777E+15,1.242674708
,1.70777E+15,1.08620441
,1.70777E+15,0.931733072
,1.70777E+15,0.779560804
,1.70777E+15,0.629996061
,1.70777E+15,0.483371317
,1.70777E+15,0.340035826
,1.70777E+15,0.200312138
,1.70777E+15,0.064433992
,1.70777E+15,-0.06749773
,1.70777E+15,-0.195516348
,1.70777E+15,-0.319751859
,1.70777E+15,-0.440373063
,1.70777E+15,-0.557531416
,1.70777E+15,-0.671333611
,1.70777E+15,-0.781841338
,1.70777E+15,-0.889063478
,1.70777E+15,-0.992919266
,1.70777E+15,-1.093197346
,1.70777E+15,-1.189555526
,1.70777E+15,-1.281577468
,1.70777E+15,-1.368857026
,1.70777E+15,-1.451059818
,1.70777E+15,-1.527943373
,1.70777E+15,-1.599357367
,1.70777E+15,-1.665250421
,1.70777E+15,-1.725679636
,1.70777E+15,-1.780814409
,1.70777E+15,-1.830927968
,1.70777E+15,-1.876376867
,1.70777E+15,-1.917563081
,1.70777E+15,-1.954878569
,1.70777E+15,-1.988647699
,1.70777E+15,-2.019085407
,1.70777E+15,-2.04627943
,1.70777E+15,-2.070193291
,1.70777E+15,-2.090685368
,1.70777E+15,-2.107544422
,1.70777E+15,-2.12053442
,1.70777E+15,-2.129435778
,1.70777E+15,-2.134081364
,1.70777E+15,-2.134382725
,1.70777E+15,-2.130351543
,1.70777E+15,-2.122122049
,1.70777E+15,-2.109968662
,1.70777E+15,-2.094297647
,1.70777E+15,-2.075605631
,1.70777E+15,-2.054412365
,1.70777E+15,-2.031181097
,1.70777E+15,-2.006244659
,1.70777E+15,-1.979757071
,1.70777E+15,-1.951681137
,1.70777E+15,-1.921811938
,1.70777E+15,-1.88982749
,1.70777E+15,-1.855354548
,1.70777E+15,-1.818035603
,1.70777E+15,-1.777589917
,1.70777E+15,-1.733859301
,1.70777E+15,-1.686830521
,1.70777E+15,-1.636636019
,1.70777E+15,-1.583541632
,1.70777E+15,-1.527923584
,1.70777E+15,-1.470234752
,1.70777E+15,-1.410962105
,1.70777E+15,-1.350581884
,1.70777E+15,-1.289519191
,1.70777E+15,-1.228118777
,1.70777E+15,-1.166630864
,1.70777E+15,-1.10521245
,1.70777E+15,-1.04393959
,1.70777E+15,-0.982825041
,1.70777E+15,-0.921839952
,1.70777E+15,-0.860936821
,1.70777E+15,-0.800072908
,1.70777E+15,-0.739232242
,1.70777E+15,-0.678440392
,1.70777E+15,-0.617768526
,1.70777E+15,-0.557330191
,1.70777E+15,-0.497274965
,1.70777E+15,-0.437789172
,1.70777E+15,-0.379106402
,1.70777E+15,-0.32151562
,1.70777E+15,-0.26534903
,1.70777E+15,-0.210943758
,1.70777E+15,-0.158587083
,1.70777E+15,-0.10846141
,1.70777E+15,-0.060603615
,1.70777E+15,-0.014888227
,1.70777E+15,0.028961215
,1.70777E+15,0.071332276
,1.70777E+15,0.112663344
,1.70777E+15,0.153377205
,1.70777E+15,0.193821073
,1.70777E+15,0.234224781
,1.70777E+15,0.274683416
,1.70777E+15,0.315159857
,1.70777E+15,0.35549885
,1.70777E+15,0.395448565
,1.70777E+15,0.434690773
,1.70777E+15,0.472875565
,1.70777E+15,0.509653509
,1.70777E+15,0.544704795
,1.70777E+15,0.577766061
,1.70777E+15,0.608650982
,1.70777E+15,0.637261391
,1.70777E+15,0.663586676
,1.70777E+15,0.68769145
,1.70777E+15,0.709695041
,1.70777E+15,0.729747832
,1.70777E+15,0.748007715
,1.70777E+15,0.764619708
,1.70777E+15,0.779702365
,1.70777E+15,0.793341994
,1.70777E+15,0.805594325
,1.70777E+15,0.816490412
,1.70777E+15,0.826041162
,1.70777E+15,0.834234416
,1.70777E+15,0.84102118
,1.70777E+15,0.846295178
,1.70777E+15,0.849882066
,1.70777E+15,0.851557434
,1.70777E+15,0.85109657
,1.70777E+15,0.848337114
,1.70777E+15,0.843230963
,1.70777E+15,0.835874379
,1.70777E+15,0.82650876
,1.70777E+15,0.815492809
,1.70777E+15,0.803255498
,1.70777E+15,0.790243328
,1.70777E+15,0.776872993
,1.70777E+15,0.763495862
,1.70777E+15,0.750375986
,1.70777E+15,0.737681687
,1.70777E+15,0.725487649
,1.70777E+15,0.713780999
,1.70777E+15,0.702464283
,1.70777E+15,0.691356421
,1.70777E+15,0.680199862
,1.70777E+15,0.668682098
,1.70777E+15,0.65647459
,1.70777E+15,0.643282473
,1.70777E+15,0.628891408
,1.70777E+15,0.613196731
,1.70777E+15,0.596208036
,1.70777E+15,0.578030109
,1.70777E+15,0.558828592
,1.70777E+15,0.538795352
,1.70777E+15,0.518125534
,1.70777E+15,0.49700579
,1.70777E+15,0.475606441
,1.70777E+15,0.45407337
,1.70777E+15,0.432519257
,1.70777E+15,0.411021322
,1.70777E+15,0.389625967
,1.70777E+15,0.368350416
,1.70777E+15,0.347170115
,1.70777E+15,0.32599926
,1.70777E+15,0.304686815
,1.70777E+15,0.283042073
,1.70777E+15,0.260882407
,1.70777E+15,0.238085821
,1.70777E+15,0.214632317
,1.70777E+15,0.190622419
,1.70777E+15,0.166269287
,1.70777E+15,0.14186646
,1.70777E+15,0.117739514
,1.70777E+15,0.094198376
,1.70777E+15,0.071502805
,1.70777E+15,0.049841456
,1.70777E+15,0.029321002
,1.70777E+15,0.009962291
,1.70777E+15,-0.008297417
,1.70777E+15,-0.025593814
,1.70777E+15,-0.042112991
,1.70777E+15,-0.058059644
,1.70777E+15,-0.073624372
,1.70777E+15,-0.088955924
,1.70777E+15,-0.104142852
,1.70777E+15,-0.119208962
,1.70777E+15,-0.134120196
,1.70777E+15,-0.14879787
,1.70777E+15,-0.163136452
,1.70777E+15,-0.177024245
,1.70777E+15,-0.190361187
,1.70777E+15,-0.203068525
,1.70777E+15,-0.215092823
,1.70777E+15,-0.226408184
,1.70777E+15,-0.237014234
,1.70777E+15,-0.246928439
,1.70777E+15,-0.2561782
,1.70777E+15,-0.264800638
,1.70777E+15,-0.272851318
,1.70777E+15,-0.280418813
,1.70777E+15,-0.287641197
,1.70777E+15,-0.29471162
,1.70777E+15,-0.30185768
,1.70777E+15,-0.309294969
,1.70777E+15,-0.31716916
,1.70777E+15,-0.32550478
,1.70777E+15,-0.334178209
,1.70777E+15,-0.342922896
,1.70777E+15,-0.351361692
,1.70777E+15,-0.359058708
,1.70777E+15,-0.365585148
,1.70777E+15,-0.370584726
,1.70777E+15,-0.373820812
,1.70777E+15,-0.375198662
,1.70777E+15,-0.37476331
,1.70777E+15,-0.37267381
,1.70777E+15,-0.369163662
,1.70777E+15,-0.364499867
,1.70777E+15,-0.358947426
,1.70777E+15,-0.352743059
,1.70777E+15,-0.346078128
,1.70777E+15,-0.339088202
,1.70777E+15,-0.331848741
,1.70777E+15,-0.324380368
,1.70777E+15,-0.31666404
,1.70777E+15,-0.308662444
,1.70777E+15,-0.300342232
,1.70777E+15,-0.29169172
,1.70777E+15,-0.282731384
,1.70777E+15,-0.273512006
,1.70777E+15,-0.264099181
,1.70777E+15,-0.254554242
,1.70777E+15,-0.244924963
,1.70777E+15,-0.235249341
,1.70777E+15,-0.225569502
,1.70777E+15,-0.215951905
,1.70777E+15,-0.20650363
,1.70777E+15,-0.197366357
,1.70777E+15,-0.188680321
,1.70777E+15,-0.180532396
,1.70777E+15,-0.17290993
,1.70777E+15,-0.165674105
,1.70777E+15,-0.158564031
,1.70777E+15,-0.151237488
,1.70777E+15,-0.143334895
,1.70777E+15,-0.134537593
,1.70777E+15,-0.124598667
,1.70777E+15,-0.113348216
,1.70777E+15,-0.100691512
,1.70777E+15,-0.08661329
,1.70777E+15,-0.071187034
,1.70777E+15,-0.054582722
,1.70777E+15,-0.037068687
,1.70777E+15,-0.019003334
,1.70777E+15,-0.000813052
,1.70777E+15,0.01704349
,1.70777E+15,0.034117799
,1.70777E+15,0.050010331
,1.70777E+15,0.064400673
,1.70777E+15,0.07706926
,1.70777E+15,0.08790943
,1.70777E+15,0.096927196
,1.70777E+15,0.104227215
,1.70777E+15,0.109990448
,1.70777E+15,0.114452161
,1.70777E+15,0.117880866
,1.70777E+15,0.120555729
,1.70777E+15,0.122742876
,1.70777E+15,0.124669045
,1.70777E+15,0.126493201
,1.70777E+15,0.128286973
,1.70777E+15,0.130036831
,1.70777E+15,0.131668821
,1.70777E+15,0.133088142
,1.70777E+15,0.134222239
,1.70777E+15,0.13505356
,1.70777E+15,0.13563481
,1.70777E+15,0.136083618
,1.70777E+15,0.136548728
,1.70777E+15,0.137154773
,1.70777E+15,0.137955874
,1.70777E+15,0.138921767
,1.70777E+15,0.139955863
,1.70777E+15,0.140931591
,1.70777E+15,0.141730323
,1.70777E+15,0.14226605
,1.70777E+15,0.142492816
,1.70777E+15,0.142399102
,1.70777E+15,0.14199169
,1.70777E+15,0.141274527
,1.70777E+15,0.140235662
,1.70777E+15,0.138849124
,1.70777E+15,0.137085661
,1.70777E+15,0.134922981
,1.70777E+15,0.132351696
,1.70777E+15,0.129378691
,1.70777E+15,0.126029566
,1.70777E+15,0.122349083
,1.70777E+15,0.1184
,1.70777E+15,0.114261746
,1.70777E+15,0.110026091
,1.70777E+15,0.105784267
,1.70777E+15,0.101606242
,1.70777E+15,0.09751676
,1.70777E+15,0.093476117
,1.70777E+15,0.089379475
,1.70777E+15,0.08508037
,1.70777E+15,0.080429643
,1.70777E+15,0.075318404
,1.70777E+15,0.069712184
,1.70777E+15,0.063665822
,1.70777E+15,0.057318531
,1.70777E+15,0.050874114
,1.70777E+15,0.044569675
,1.70777E+15,0.038636714
,1.70777E+15,0.033264976
,1.70777E+15,0.028580805
,1.70777E+15,0.024643123
,1.70777E+15,0.02145116
,1.70777E+15,0.018954981
,1.70777E+15,0.017063741
,1.70777E+15,0.015651405
,1.70777E+15,0.014563015
,1.70777E+15,0.013627155
,1.70777E+15,0.012675019
,1.70777E+15,0.01155932
,1.70777E+15,0.010167418
,1.70777E+15,0.008426492
,1.70777E+15,0.006305404
,1.70777E+15,0.003818541
,1.70777E+15,0.001024302
,1.70777E+15,-0.001987788
,1.70777E+15,-0.00511359
,1.70777E+15,-0.008245695
,1.70777E+15,-0.011278991
,1.70777E+15,-0.01411644
,1.70777E+15,-0.016677398
,1.70777E+15,-0.018905358
,1.70777E+15,-0.020776091
,1.70777E+15,-0.022306211
,1.70777E+15,-0.023556098
,1.70777E+15,-0.024620472
,1.70777E+15,-0.025604287
,1.70777E+15,-0.026593221
,1.70777E+15,-0.027634069
,1.70777E+15,-0.028731486
,1.70777E+15,-0.029855255
,1.70777E+15,-0.030948484
,1.70777E+15,-0.031934541
,1.70777E+15,-0.032723147
,1.70777E+15,-0.033213329
,1.70777E+15,-0.033297688
,1.70777E+15,-0.032875456
,1.70777E+15,-0.031875901
,1.70777E+15,-0.030289302
,1.70777E+15,-0.028193444
,1.70777E+15,-0.025758382
,1.70777E+15,-0.023223948
,1.70777E+15,-0.020858804
,1.70777E+15,-0.018914312
,1.70777E+15,-0.01758432
,1.70777E+15,-0.016976863
,1.70777E+15,-0.017098932
,1.70777E+15,-0.017857853
,1.70777E+15,-0.019082993
,1.70777E+15,-0.020561853
,1.70777E+15,-0.022081368
,1.70777E+15,-0.02346627
,1.70777E+15,-0.024603263
,1.70777E+15,-0.025445405
,1.70777E+15,-0.026005674
,1.70777E+15,-0.026352519
,1.70777E+15,-0.026605804
,1.70777E+15,-0.026923195
,1.70777E+15,-0.027476674
,1.70777E+15,-0.028424518
,1.70777E+15,-0.029881347
,1.70777E+15,-0.031889871
,1.70777E+15,-0.034402348
,1.70777E+15,-0.037280798
,1.70777E+15,-0.040316895
,1.70777E+15,-0.043264143
,1.70777E+15,-0.045876183
,1.70777E+15,-0.047945917
,1.70777E+15,-0.049335454
,1.70777E+15,-0.049988411
,1.70777E+15,-0.049926706
,1.70777E+15,-0.04924009
,1.70777E+15,-0.048071716
,1.70777E+15,-0.046598241
,1.70777E+15,-0.045004435
,1.70777E+15,-0.043455362
,1.70777E+15,-0.042073108
,1.70777E+15,-0.040924035
,1.70777E+15,-0.040017892
,1.70777E+15,-0.039317466
,1.70777E+15,-0.038753577
,1.70777E+15,-0.038239811
,1.70777E+15,-0.037686199
,1.70777E+15,-0.037011839
,1.70777E+15,-0.03615319
,1.70777E+15,-0.035067983
,1.70777E+15,-0.033739466
,1.70777E+15,-0.032177195
,1.70777E+15,-0.030408671
,1.70777E+15,-0.02847405
,1.70777E+15,-0.02643396
,1.70777E+15,-0.024376383
,1.70777E+15,-0.022408552
,1.70777E+15,-0.020636905
,1.70777E+15,-0.019141929
,1.70777E+15,-0.01795334
,1.70777E+15,-0.01703522
,1.70777E+15,-0.016289691
,1.70777E+15,-0.015576528
,1.70777E+15,-0.014738855
,1.70777E+15,-0.013628082
,1.70777E+15,-0.012124745
,1.70777E+15,-0.010154247
,1.70777E+15,-0.007697958
,1.70777E+15,-0.00479578
,1.70777E+15,-0.001537569
,1.70777E+15,0.001951063
,1.70777E+15,0.005523482
,1.70777E+15,0.009026123
,1.70777E+15,0.012311434
,1.70777E+15,0.015251813
,1.70777E+15,0.017754409
,1.70777E+15,0.019771863
,1.70777E+15,0.021306366
,1.70777E+15,0.02240723
,1.70777E+15,0.023160473
,1.70777E+15,0.023672782
,1.70777E+15,0.024057403
,1.70777E+15,0.024424387
,1.70777E+15,0.024872513
,1.70777E+15,0.025480812
,1.70777E+15,0.026299944
,1.70777E+15,0.027347209
,1.70777E+15,0.028606072
,1.70777E+15,0.030025043
,1.70777E+15,0.031513277
,1.70777E+15,0.032938849
,1.70777E+15,0.034139067
,1.70777E+15,0.034945715
,1.70777E+15,0.035219647
,1.70777E+15,0.034883715
,1.70777E+15,0.033941139
,1.70777E+15,0.032473028
,1.70777E+15,0.030618409
,1.70777E+15,0.02854101
,1.70777E+15,0.026388437
,1.70777E+15,0.024258817
,1.70777E+15,0.022187803
,1.70777E+15,0.020158119
,1.70777E+15,0.018127209
,1.70777E+15,0.016055746
,1.70777E+15,0.013915233
,1.70777E+15,0.011675321
,1.70777E+15,0.009294838
,1.70777E+15,0.006735791
,1.70777E+15,0.003996618
,1.70777E+15,0.001143724
,1.70777E+15,-0.001677424
,1.70777E+15,-0.004257739
,1.70777E+15,-0.006363779
,1.70777E+15,-0.007788997
,1.70777E+15,-0.008396585
,1.70777E+15,-0.008137535
,1.70777E+15,-0.007045105
,1.70777E+15,-0.005219076
,1.70777E+15,-0.00280736
,1.70777E+15,1.58E-05
,1.70777E+15,0.003071569
,1.70777E+15,0.006192043
,1.70777E+15,0.009229824
,1.70777E+15,0.012062069
,1.70777E+15,0.014584862
,1.70777E+15,0.016701927
,1.70777E+15,0.01832081
,1.70777E+15,0.019363999
,1.70777E+15,0.019789606
,1.70777E+15,0.019611595
,1.70777E+15,0.018910896
,1.70777E+15,0.017830867
,1.70777E+15,0.016559131
,1.70777E+15,0.015304161
,1.70777E+15,0.014272794
,1.70777E+15,0.013651872
,1.70777E+15,0.013593335
,1.70777E+15,0.014199454
,1.70777E+15,0.015508944
,1.70777E+15,0.017491456
,1.70777E+15,0.020054525
,1.70777E+15,0.023056895
,1.70777E+15,0.026323941
,1.70777E+15,0.02966636
,1.70777E+15,0.032900054
,1.70777E+15,0.03586407
,1.70777E+15,0.038436461
,1.70777E+15,0.040544897
,1.70777E+15,0.042166758
,1.70777E+15,0.043319479
,1.70777E+15,0.044047303
,1.70777E+15,0.044409834
,1.70777E+15,0.044472627
,1.70777E+15,0.04429803
,1.70777E+15,0.043939382
,1.70777E+15,0.043439113
,1.70777E+15,0.042825177
,1.70777E+15,0.042106569
,1.70777E+15,0.041273855
,1.70777E+15,0.040304549
,1.70777E+15,0.039167762
,1.70777E+15,0.037822817
,1.70777E+15,0.036212299
,1.70777E+15,0.034257766
,1.70777E+15,0.031868055
,1.70777E+15,0.028962236
,1.70777E+15,0.02549771
,1.70777E+15,0.021492798
,1.70777E+15,0.017037712
,1.70777E+15,0.012289947
,1.70777E+15,0.007454891
,1.70777E+15,0.002758043
,1.70777E+15,-0.001584461
,1.70777E+15,-0.005392129
,1.70777E+15,-0.00853899
,1.70777E+15,-0.010961862
,1.70777E+15,-0.012657181
,1.70777E+15,-0.013670796
,1.70777E+15,-0.014086921
,1.70777E+15,-0.014017226
,1.70777E+15,-0.013588423
,1.70777E+15,-0.012928229
,1.70777E+15,-0.012153033
,1.70777E+15,-0.011363132
,1.70777E+15,-0.010644959
,1.70777E+15,-0.010074887
,1.70777E+15,-0.009720279
,1.70777E+15,-0.009635538
,1.70777E+15,-0.009855937
,1.70777E+15,-0.01039236
,1.70777E+15,-0.011228666
,1.70777E+15,-0.012325402
,1.70777E+15,-0.013629336
,1.70777E+15,-0.015083339
,1.70777E+15,-0.016633701
,1.70777E+15,-0.018235404
,1.70777E+15,-0.01985494
,1.70777E+15,-0.021468397
,1.70777E+15,-0.023056734
,1.70777E+15,-0.024604434
,1.70777E+15,-0.026104895
,1.70777E+15,-0.027568674
,1.70777E+15,-0.02902518
,1.70777E+15,-0.030513432
,1.70777E+15,-0.032068618
,1.70777E+15,-0.033711616
,1.70777E+15,-0.03544144
,1.70777E+15,-0.037229888
,1.70777E+15,-0.039022222
,1.70777E+15,-0.040747397
,1.70777E+15,-0.042332523
,1.70777E+15,-0.043713138
,1.70777E+15,-0.044837732
,1.70777E+15,-0.045668304
,1.70777E+15,-0.046180487
,1.70777E+15,-0.046367753
,1.70777E+15,-0.046247728
,1.70777E+15,-0.045862779
,1.70777E+15,-0.045271493
,1.70777E+15,-0.044535652
,1.70777E+15,-0.043708619
,1.70777E+15,-0.042829014
,1.70777E+15,-0.041918147
,1.70777E+15,-0.040977694
,1.70777E+15,-0.039991584
,1.70777E+15,-0.038933761
,1.70777E+15,-0.037775457
,1.70777E+15,-0.036490589
,1.70777E+15,-0.035060674
,1.70777E+15,-0.03347864
,1.70777E+15,-0.031754106
,1.70777E+15,-0.029919934
,1.70777E+15,-0.028032733
,1.70777E+15,-0.026162611
,1.70777E+15,-0.024379428
,1.70777E+15,-0.022743838
,1.70777E+15,-0.021300906
,1.70777E+15,-0.020075053
,1.70777E+15,-0.019069195
,1.70777E+15,-0.018268336
,1.70777E+15,-0.017649911
,1.70777E+15,-0.017199449
,1.70777E+15,-0.016920872
,1.70777E+15,-0.016835934
,1.70777E+15,-0.016974725
,1.70777E+15,-0.017359892
,1.70777E+15,-0.017990891
,1.70777E+15,-0.018836321
,1.70777E+15,-0.019835848
,1.70777E+15,-0.020907998
,1.70777E+15,-0.021961352
,1.70777E+15,-0.022908291
,1.70777E+15,-0.023680717
,1.70777E+15,-0.024246166
,1.70777E+15,-0.024621826
,1.70777E+15,-0.024884047
,1.70777E+15,-0.025171284
,1.70777E+15,-0.025679342
,1.70777E+15,-0.026644181
,1.70777E+15,-0.028308678
,1.70777E+15,-0.030882552
,1.70777E+15,-0.034507349
,1.70777E+15,-0.039228253
,1.70777E+15,-0.044971421
,1.70777E+15,-0.051528294
,1.70777E+15,-0.058549471
,1.70777E+15,-0.065559
,1.70777E+15,-0.072002418
,1.70777E+15,-0.077310652
,1.70777E+15,-0.08094576
,1.70777E+15,-0.082460292
,1.70777E+15,-0.081596315
,1.70777E+15,-0.078263007
,1.70777E+15,-0.072252251
,1.70777E+15,-0.062930398
,1.70777E+15,-0.049060278
,1.70777E+15,-0.028214768
,1.70777E+15,0.004359342
,1.70777E+15,0.055950548
,1.70777E+15,0.134449214
,1.70777E+15,0.245643556
,1.70777E+15,0.391900748
,1.70777E+15,0.572220325
,1.70777E+15,0.782539189
,1.70777E+15,1.016169548
,1.70777E+15,1.264221191
,1.70777E+15,1.515322208
,1.70777E+15,1.755033493
,1.70777E+15,1.966345549
,1.70777E+15,2.132091999
,1.70777E+15,2.238330126
,1.70777E+15,2.276404381
,1.70777E+15,2.242892742
,1.70777E+15,2.138870239
,1.70777E+15,1.969649553
,1.70777E+15,1.744721532
,1.70777E+15,1.476959229
,1.70777E+15,1.180536747
,1.70777E+15,0.868283212
,1.70777E+15,0.549896181
,1.70777E+15,0.231737077
,1.70777E+15,-0.082098424
,1.70777E+15,-0.388556302
,1.70777E+15,-0.685170174
,1.70777E+15,-0.970115185
